,ECG_Mean RR (ms),ECG_STD RR/SDNN (ms),ECG_Mean HR (beats/min),ECG_STD HR (beats/min),ECG_Min HR (beats/min),ECG_Max HR (beats/min),ECG_RMSSD (ms),ECG_NNxx,ECG_pNNxx (%),ECG_Power VLF (ms2),ECG_Power LF (ms2),ECG_Power HF (ms2),ECG_Power Total (ms2),ECG_LF/HF,ECG_Peak VLF (Hz),ECG_Peak LF (Hz),ECG_Peak HF (Hz),ECG_Fraction LF (nu),ECG_Fraction HF (nu),ECG_sd1,ECG_sd2
0,1628.6146962739635,55.188068134285714,36.885011359878256,1.2963350048512312,34.35708537577388,40.97702921596755,35.88912411109373,6,10.0,239.13742215470532,903.7746050530964,326.3391108807769,1469.2511380885785,2.76943392599754,0.036036036036036036,0.07207207207207207,0.18018018018018017,73.47081764444616,26.52918235555385,25.298894185705564,72.32780907500164
1,1633.1765105588875,53.970248960493535,36.77989030213222,1.262243649671265,34.35708537577388,40.97702921596755,38.14810346428476,10,14.285714285714286,241.5814678573941,766.5064489292529,537.3078328598408,1545.3957496464877,1.4265685367910867,0.03125,0.09375,0.15625,58.7895423171353,41.2104576828647,26.97478264900178,71.81475870069204
2,1629.325798202644,54.65246666442159,36.867964655288034,1.2808099867503837,34.35708537577388,40.97702921596755,39.32600416475396,10,15.625,208.3897755188305,810.9948344290374,513.4448098198814,1532.8294197677492,1.579517056007515,0.034782608695652174,0.10434782608695653,0.24347826086956523,61.23305338605652,38.76694661394348,27.807684221867937,72.52719115163977
3,1625.8140565477831,58.36253313421852,36.95343757225213,1.362393568351147,34.35708537577388,40.97702921596755,43.05881108553987,11,19.642857142857142,4988.153115492344,1060.1045620833252,1941.1100051623578,7989.367682738028,0.5461331708476028,0.028985507246376812,0.057971014492753624,0.2608695652173913,35.32251821155924,64.67748178844076,30.43484702384076,76.06149721087625
4,1622.2340491464536,60.90654234394689,37.039281259893976,1.4202133774923082,34.35708537577388,40.97702921596755,47.01148131572657,10,22.727272727272727,6053.91874257037,1408.1869140515182,1773.6153626071048,9235.721019228993,0.7939640937601998,0.03508771929824561,0.07017543859649122,0.3157894736842105,44.257524245985806,55.74247575401421,33.09874117500095,77.90187119491227
5,1634.2426676038028,59.76484133735989,36.76502875498099,1.3905570342287104,34.35708537577388,40.97702921596755,49.124485362289235,11,28.205128205128204,893.4131182749788,498.61943588401033,46.09256571208861,1438.1251198710777,10.817784347232344,0.0273972602739726,0.0547945205479452,0.3287671232876712,91.53817694909795,8.461823050902044,34.73228565111251,77.5779770917247
6,1632.6229199556235,51.27641552934951,36.786852236101105,1.1524795613877898,34.45920193856854,38.90625,43.74948638651954,11,30.555555555555557,1939.7764326633353,1920.2713112656734,78.13209516787812,3938.179839096887,24.57724072469441,0.027210884353741496,0.05442176870748299,0.29931972789115646,96.09027412001282,3.909725879987189,30.923238333697967,66.0095281489169
7,1609.1417548035192,46.7558986734725,37.31762294983121,1.0560933273264557,34.45920193856854,38.90625000000001,37.09097250144902,7,17.073170731707318,324430.18298117805,58031.72868669584,4109.4658844958485,386571.3775523698,14.121477174354302,0.0380952380952381,0.0761904761904762,0.1523809523809524,93.38688946542882,6.613110534571175,26.057067375984587,58.05591042628955
8,1606.7581379119129,43.318983549465266,37.368816507773325,0.9853307496653115,34.45920193856854,39.37499999999999,35.8441447885183,8,14.035087719298245,231217.78142623903,37718.32400203103,1774.318792039636,270710.4242203097,21.257918346608175,0.031007751937984496,0.06201550387596899,0.15503875968992248,95.50721687254105,4.4927831274589405,25.307913094929873,53.864915709069585
9,1631.1501508605934,75.17701257799001,36.85810812724743,1.6127486339647832,32.81249999999999,39.37499999999999,33.708296452862406,8,10.81081081081081,814.1414758861183,182.17123530608725,120.18349956106837,1116.496210753274,1.515775759329768,0.035398230088495575,0.1415929203539823,0.3893805309734513,60.25082933995629,39.74917066004371,23.79649173491725,102.31814717065359
10,1655.4145505100244,85.58573653826008,36.339232088390204,1.8299800046817407,32.81249999999999,39.37499999999999,33.371721981605425,10,10.989010989010989,1670.5775896539203,902.7562958880837,139.02501117666174,2712.358896718666,6.493481196278662,0.029197080291970802,0.058394160583941604,0.17518248175182483,86.65506760066856,13.344932399331435,23.56119971937808,117.98345007328088
11,1677.3500374746918,95.03243271766132,35.885166855933676,2.021561342412453,32.81249999999999,39.37499999999999,32.68557491985561,11,11.458333333333334,2001.1545213504276,2230.6983530287,242.73721389687324,4474.590088276001,9.18976665018661,0.028169014084507043,0.056338028169014086,0.16901408450704225,90.18623257695812,9.813767423041886,23.103038301126656,132.03070069825844
12,1700.0418289349645,97.228103858655,35.40927986869941,2.0309047712809782,31.875000000000007,39.37499999999999,30.17639485479454,9,9.090909090909092,1806.6092871288274,1403.9792839313086,671.3038259286054,3881.8923969887414,2.091421543723817,0.03007518796992481,0.06015037593984962,0.15037593984962405,67.65242184359512,32.34757815640488,21.330673716502154,136.3042124310846
13,1712.8439217470914,88.65490564833262,35.12464538716601,1.8412269846680007,31.875000000000007,39.37499999999999,29.48801912109078,9,8.910891089108912,1697.7926773999934,1256.8282307946638,388.54902177027066,3343.169929964928,3.234670943368795,0.02962962962962963,0.14814814814814814,0.17777777777777778,76.38541427720773,23.614585722792263,20.840023201783552,122.45313652777652
14,1704.6396457842484,101.3882725469219,35.326937603988725,2.170968329960734,31.875000000000007,40.40586794767844,30.401669366725603,10,9.900990099009901,2017.968691347561,2144.0110200753284,609.3995262292507,4771.379237652141,3.5182354560426266,0.029850746268656716,0.14925373134328357,0.1791044776119403,77.86746596699352,22.132534033006483,21.497212972157,141.96067311060122
15,1698.4254022242517,98.89942316818227,35.449965845996466,2.1191451988923187,31.875000000000007,40.40586794767844,29.331163104782448,9,9.89010989010989,2101.058327593697,1436.204203705629,1321.5738883911508,4858.836419690477,1.0867377271308123,0.03076923076923077,0.12307692307692308,0.15384615384615385,52.0783092672138,47.92169073278621,20.712415908226102,138.71837874418767
16,1663.9787615275714,116.45872955424088,36.23785602695482,2.575019042194081,31.875000000000007,41.7347141375142,35.91957026851837,8,9.75609756097561,1209.0883039629148,2492.180797275611,647.4768698665185,4348.745971105044,3.849065369376654,0.02857142857142857,0.05714285714285714,0.17142857142857143,79.37746918580828,20.62253081419172,25.291316802234586,162.3247284055968
17,1632.131322683177,102.40509686625981,36.904212433082215,2.2792290267795567,31.875000000000007,41.7347141375142,38.42319493513396,9,11.11111111111111,565.5202747889094,3965.5287694853637,370.88378940800413,4901.932833682277,10.692105944600723,0.027586206896551724,0.08275862068965517,0.16551724137931034,91.44722084508832,8.552779154911681,27.080857200083965,140.69843187135092
18,1611.6485290888613,74.70496173669144,37.311210695178794,1.7774737844013915,34.21875,41.7347141375142,40.62940757639367,10,12.345679012345679,850.6343729420807,4965.666061131316,147.28773435900771,5963.588168432405,33.714050139624746,0.027586206896551724,0.08275862068965517,0.16551724137931034,97.11932201521326,2.8806779847867383,28.71198403351306,101.43433959708199
19,1607.549596280266,67.35514282078776,37.3924876514339,1.6388188837082254,35.15625,41.7347141375142,41.59203558811287,11,13.75,1012.3664112666531,3192.245941167573,79.27293589455051,4283.885288328777,40.26905153877389,0.027777777777777776,0.05555555555555555,0.16666666666666666,97.57687670854162,2.423123291458397,29.39723641168416,90.84361189875217
20,1629.574327641874,59.33380716775232,36.87210355064607,1.4481824006674184,35.15625,41.7347141375142,38.98771299889321,9,11.538461538461538,774.0669223533806,752.421475501482,48.25440115562248,1574.742799010485,15.592805163510182,0.028169014084507043,0.056338028169014086,0.16901408450704225,93.97329149504426,6.026708504955719,27.567403618428475,79.7362593189893
21,1642.838820413087,68.3492275426795,36.58826406602832,1.5942866725215543,33.28125,41.7347141375142,30.7463275018788,9,10.112359550561798,127.88503750768928,23.416250578601698,81.5100253726865,232.81131345897748,0.2872806194273169,0.03007518796992481,0.12030075187969924,0.15037593984962405,22.31686044920973,77.68313955079026,21.54442960639457,90.65095016523016
22,1653.8889376459626,46.37283828309701,36.30584580715685,0.9895029383511675,33.28125,38.4375,30.944352761213356,10,10.309278350515465,78.0290484640168,112.47326564263142,146.1068971658888,336.609211272537,0.7698012059959772,0.027972027972027972,0.13986013986013987,0.1958041958041958,43.49647877896898,56.503521221031036,21.88045314057361,61.84216815718244
23,1656.1932043414636,45.5745489082799,36.2543442009814,0.9708770170294895,33.28125,38.43749999999999,28.669466969851992,8,8.333333333333334,155.93484069227898,913.8648172980352,542.8829768326084,1612.6826348229226,1.683355080739278,0.028368794326241134,0.0851063829787234,0.1702127659574468,62.7332212878627,37.2667787121373,20.267063876825983,61.262240491677964
24,1652.3479866820903,46.58472337618343,36.33991624520226,0.9925033454873525,33.28125,38.43749999999999,24.86271633745993,6,6.315789473684211,248.43458714413308,1701.768772725437,862.9889696689942,2813.192329538564,1.9719473047009664,0.028169014084507043,0.056338028169014086,0.16901408450704225,66.35202789705524,33.64797210294476,17.579935167844713,63.53624687695345
25,1648.0366306075136,46.51130854689114,36.434889274858946,0.9907128099862514,33.28125,38.43749999999999,23.840014718229124,5,5.208333333333333,190.72373224610013,931.8053834566388,568.8543024715077,1691.3834181742466,1.6380387375259595,0.027972027972027972,0.08391608391608392,0.16783216783216784,62.09305095580844,37.90694904419157,16.857275615119082,63.77073462632348
26,1653.5148442662914,49.729037730026484,36.318235269208934,1.0614812191018834,33.28125,38.43749999999999,27.173458841723654,7,7.070707070707071,294.22555037245627,190.46205568289076,184.36705639898742,669.0546624543344,1.033059047548675,0.027777777777777776,0.08333333333333333,0.19444444444444442,50.81303707308785,49.18696292691215,19.214537011057264,68.01198549190967
27,1649.6550368488522,41.609096194811755,36.39421610587123,0.9112598095174196,34.21875,38.43749999999999,30.013206068027174,8,8.24742268041237,182.22674951302585,190.00746814995466,54.182350141844694,426.41656780482526,3.50681481428051,0.027972027972027972,0.055944055944055944,0.1958041958041958,77.81138029387513,22.188619706124864,21.219746802160774,53.859804059329356
28,1667.2283744272952,47.719922383878576,36.017219387755105,1.025874231004171,33.75,38.43749999999999,29.889117414123724,7,7.142857142857143,284.5796370717444,248.57762384573573,58.86638551489038,592.0236464323705,4.222743110036159,0.028368794326241134,0.05673758865248227,0.3971631205673759,80.85297363987951,19.147026360120485,21.10357881022535,63.29059409602186
29,1685.6710871039527,51.985523816546426,35.627923344268694,1.0962373835543215,33.28124999999999,37.5,28.124239537869567,5,4.9504950495049505,183.09232453529086,234.97821301150515,85.16939090458293,503.23992845137894,2.7589514321495643,0.02877697841726619,0.08633093525179857,0.2302158273381295,73.39683637710243,26.603163622897565,19.8539065222671,70.04374668793577
30,1700.787132725073,48.691304170347365,35.30664849247343,1.0088944849315808,32.8125,37.5,28.986298395098505,5,4.901960784313726,220.99452326217585,176.15890282990048,287.4338127692746,684.5872388613509,0.6128677107703562,0.029197080291970802,0.058394160583941604,0.17518248175182483,37.99863477195109,62.001365228048904,20.491761187841803,65.21018818680272
31,1705.1464049660801,43.84889519184351,35.21067471517118,0.8979676665859931,32.8125,37.03125,29.317178581740258,5,4.9504950495049505,427.8438532870805,328.18081048128215,479.21011125367994,1235.2347750220426,0.6848369906526299,0.029197080291970802,0.145985401459854,0.17518248175182483,40.647077103130016,59.352922896869984,20.73037578040555,58.45629961507168
32,1698.3575666624474,48.28816391693554,35.35653146232289,0.9952000608564666,32.8125,37.03125000000001,28.370870682083424,3,3.0,614.1534767246037,685.9720188895732,338.39942891577687,1638.5249245299538,2.027107495681686,0.028985507246376812,0.057971014492753624,0.17391304347826086,66.96516389237753,33.034836107622475,20.058863667412368,65.36560737935932
33,1691.8523169092296,51.96265927505096,35.49715646232289,1.0772243773817045,32.8125,37.49999999999999,27.80354914051066,4,4.0,542.0430095948379,440.72246720124076,121.87391440958409,1104.6393912056628,3.6162165573848397,0.02877697841726619,0.05755395683453238,0.17266187050359713,78.33723813497788,21.66276186502212,19.657528441760856,71.11426088472278
34,1683.8608239601897,48.518161458803746,35.66136394615534,1.005873168671211,32.8125,37.49999999999999,27.830801962915405,4,4.040404040404041,437.2895648200666,77.14584534369182,46.14614483356687,560.5815549973253,1.671772270943328,0.02857142857142857,0.08571428571428572,0.17142857142857143,62.57166035910208,37.4283396408979,19.661713395396593,65.37418756202375
35,1673.4018086328654,38.76530463700942,35.87387980150748,0.81107765785552,32.8125,37.49999999999999,28.470013990950953,4,4.081632653061225,179.40536764303607,101.86687091274942,59.18895201606821,340.4611905718537,1.7210453546313054,0.028368794326241134,0.05673758865248227,0.3971631205673759,63.2494181584306,36.75058184156939,20.09500256003496,48.79244697574617
36,1670.8906496017073,30.840397047395225,35.92124828659777,0.6641471032532461,34.68749999999999,37.49999999999999,29.388156256532184,4,4.081632653061225,98.38050268747075,142.39565980784994,76.81882419847145,317.5949866937922,1.8536558101950662,0.028368794326241134,0.05673758865248227,0.3971631205673759,64.95723147734331,35.04276852265668,20.779919788726183,38.40425764927244
37,1685.0333442347514,45.44108294945798,35.63276840341217,0.9341140960613871,32.34375,37.49999999999999,28.249879095848268,4,4.0,51.334690328143985,74.22437840017498,67.42147463152551,192.9805433598445,1.1009011417479218,0.02877697841726619,0.14388489208633093,0.17266187050359713,52.401377669393185,47.59862233060683,19.928190782239316,58.94155684870961
38,1710.0280821199076,58.541505708704115,35.12745278549431,1.1783466323989942,32.34375,37.49999999999999,27.668663818806433,5,4.901960784313726,228.2763341277346,168.13048915227643,53.30599608170235,449.7128193617134,3.154063360800576,0.028985507246376812,0.14492753623188406,0.2318840579710145,75.92718470699303,24.07281529300696,19.55770392593118,80.57070984254663
39,1716.4670357097327,62.31338126664551,35.001117265482655,1.2571817344242304,32.34375,38.11860752423233,28.328021478934357,5,4.9504950495049505,597.7926804632741,875.6821179471709,85.40908257356033,1558.8838809840054,10.252798549767487,0.029197080291970802,0.058394160583941604,0.23357664233576642,91.11332176100618,8.886678238993824,20.025334184990847,84.73592923182673
40,1694.6805891015333,90.82469309723382,35.509678013251715,1.9591318198795966,32.34375,40.3125,28.491060244131607,6,6.0,2574.7478190686998,1480.112386951479,413.22750292981607,4468.0877089499945,3.581834162676404,0.029411764705882353,0.058823529411764705,0.23529411764705882,78.17467929882766,21.82532070117235,20.141544231245046,126.87093594523664
41,1670.3380814721088,109.21971148145632,36.07694853675679,2.3905947516855464,32.34375,40.78125,28.7908529162582,7,7.0,4177.095017033311,2055.880828525041,1027.7852831327518,7260.761128691104,2.000301874588622,0.02857142857142857,0.05714285714285714,0.2571428571428571,66.67002049128432,33.329979508715674,20.301311954168057,152.57923436557712
42,1650.914966590039,113.18771054415286,36.51238488561291,2.466978149390808,32.34375,40.78125,28.50972547852702,8,8.080808080808081,3706.8466320848124,1911.8933385927455,839.8680201828697,6458.607990860428,2.2764211669548473,0.02702702702702703,0.05405405405405406,0.24324324324324326,69.47889330939056,30.521106690609447,20.153855788270423,159.5153516979014
43,1641.5419860720372,107.65494252601123,36.70528691029473,2.3560508283198867,32.34375,40.78125,31.126394096901624,11,11.224489795918368,3622.3482942485684,862.4251151944474,306.35060900583284,4791.124018448849,2.815157175607335,0.027210884353741496,0.05442176870748299,0.19047619047619047,73.78876009634362,26.211239903656395,21.99788712368975,149.96295472230514
44,1628.416669494174,92.30446843291001,36.96251055082145,2.065403962731552,32.5405373665097,40.78125,32.680677147246904,11,11.34020618556701,2290.3565356361673,527.8950961890214,163.1616063191398,2981.4132381443287,3.235412472934794,0.0273972602739726,0.0547945205479452,0.1917808219178082,76.38954868291538,23.610451317084635,23.106739390262526,128.23938995536867
45,1635.0219687452993,90.88663703197665,36.81091442588114,2.055679334273023,33.28125,40.78125,31.496102121713186,8,8.16326530612245,2000.6180358995794,844.4176094557869,122.44244998217256,2967.478095337539,6.896444897817161,0.027972027972027972,0.055944055944055944,0.1958041958041958,87.33607322104618,12.66392677895382,22.24425658122829,126.77158269574504
46,1675.531599741701,92.8061854865825,35.922762591958815,2.0469073188664497,32.34374999999999,40.78125,30.651684514484714,7,6.930693069306931,1209.1631848596876,759.509611878676,126.0393722479044,2094.712168986268,6.025971078186673,0.028985507246376812,0.057971014492753624,0.17391304347826086,85.7670919952308,14.232908004769202,21.547067666349644,127.96831331462408
47,1721.7143652740715,80.52325555965992,34.92756261667691,1.6833694735243434,31.56907164216473,40.3125,31.304373543056474,10,9.70873786407767,147.8038846083196,345.4069907454964,193.10961327135553,686.3204886251715,1.7886576690521059,0.02962962962962963,0.05925925925925926,0.17777777777777778,64.14045326904859,35.8595467309514,22.027939019957596,109.57068188480957
48,1754.8442769656615,56.223475738123945,34.226561423978296,1.1091125727530422,31.56907164216473,37.50000000000001,31.71296329992942,11,10.476190476190476,432.77829130287296,424.9616800327032,441.9727449528798,1299.712716288456,0.9615110544384582,0.03007518796992481,0.06015037593984962,0.18045112781954886,49.018895522550075,50.98110447744992,22.410711041803946,76.10865970007583
49,1762.891387487968,47.68530835425691,34.05980006874084,0.9176651403609134,31.56907164216473,36.09375,29.213587524215832,8,7.619047619047619,596.5821604458059,426.72507234821745,464.7753139205513,1488.0825467145746,0.9181319652040767,0.030534351145038167,0.061068702290076333,0.183206106870229,47.86594362950379,52.1340563704962,20.65146686512077,64.28205734181346
50,1745.350193546547,74.99837524436434,34.44345372154728,1.5478139501763102,31.56907164216473,38.90208416869052,30.779728219875793,11,10.476190476190476,1358.9875439449181,207.53071843241807,378.41057527885147,1944.9288376561876,0.5484273748942885,0.030303030303030304,0.09090909090909091,0.18181818181818182,35.418346626152214,64.58165337384779,21.751822656142867,103.58691952696825
51,1748.9858782564145,74.30294897316965,34.37076401007837,1.536537071774234,31.56907164216473,38.90208416869052,28.69184908290392,11,10.476190476190476,1229.3431577706851,547.7140800944087,787.9368423590498,2564.9940802241435,0.6951243432843878,0.030303030303030304,0.06060606060606061,0.18181818181818182,41.00727749195967,58.99272250804034,20.286886364521642,103.57684395919962
52,1725.7012793190636,84.73015406495102,34.85480702823773,1.7608120880041653,31.56907164216473,38.90208416869052,29.745662599351867,12,11.650485436893204,1192.4900946998014,2039.002505072678,1167.2348062320016,4398.727406004481,1.7468657498784375,0.03007518796992481,0.06015037593984962,0.21052631578947367,63.5948717171833,36.4051282828167,20.89290127048586,115.99974809880123
53,1678.22279639246,100.50580859427644,35.883716627765025,2.200380429939099,32.34375,40.3125,29.04714250888769,10,9.900990099009901,7.066107941958735,3579.9634799912665,736.1690088652001,4323.198596798426,4.86296412492256,0.028985507246376812,0.057971014492753624,0.2028985507246377,82.9437810177082,17.0562189822918,20.48503818526161,140.5032015303057
54,1639.0274139362582,92.73864994385916,36.72390693269661,2.067073212605646,33.28125,40.3125,29.306686403565912,11,11.224489795918368,1258.1710855112733,2630.904313018652,936.3776107893027,4825.453009319228,2.8096617034670217,0.028169014084507043,0.056338028169014086,0.16901408450704225,73.75095014106004,26.249049858939962,20.64783010246385,128.87606399507257
55,1613.917122905709,80.84194438271894,37.267758246560426,1.821408886949098,33.75,40.3125,31.37259501114381,14,14.43298969072165,1630.6481005740497,1184.217797801557,1032.5951659142986,3847.461064289905,1.1468364726974158,0.0273972602739726,0.0547945205479452,0.1643835616438356,53.41983366140882,46.58016633859119,22.147071328417905,111.80216863345233
56,1616.6662054441445,76.97054630243542,37.19627957440615,1.7427783101314305,33.75,40.3125,29.489942506804617,11,11.34020618556701,1755.0168076122761,438.303714830676,452.83383631162724,2646.1543587545793,0.9679129068638059,0.0273972602739726,0.0547945205479452,0.1643835616438356,49.18474305889557,50.81525694110443,20.851947450490968,107.28165229098197
57,1594.5485739481126,51.75261861447638,37.668128004391995,1.2308906821142276,34.99632776350187,40.3125,32.53348846394722,15,15.625,513.8275845309666,205.76997192793476,168.04625371710728,887.6438101760086,1.2244841368158816,0.027210884353741496,0.05442176870748299,0.21768707482993196,55.045757196030344,44.954242803969656,22.988867796640797,68.78434502928624
58,1599.2060979555333,54.19330304829692,37.562113391368484,1.284447553379405,34.6875,40.3125,32.43961602124355,14,14.583333333333334,308.73046195158486,216.27159012589382,126.236480416237,651.2385324937156,1.7132257601985248,0.027210884353741496,0.05442176870748299,0.21768707482993196,63.14350192787382,36.85649807212617,22.8830562585576,71.81374074176547
59,1625.0135739184834,47.424790249951286,36.95464126129599,1.0928422750015743,34.6875,39.84375,33.34782561038392,14,14.43298969072165,34.47330371564409,119.70029677926937,113.68918134129788,267.8627818362113,1.0528732405938077,0.027777777777777776,0.05555555555555555,0.25,51.287786297475286,48.712213702524714,23.57272000073178,62.87805103715611
60,1639.6267714632766,38.568647468412756,36.614228453442614,0.8735246354487494,34.6875,39.84374999999999,31.12585899697263,9,9.090909090909092,149.65426246041488,110.31757603531997,125.88059711919365,385.8524356149285,0.8763667996495331,0.027777777777777776,0.05555555555555555,0.2777777777777778,46.70551620361331,53.29448379638669,21.993829756343015,48.305825526247105
61,1646.2334476807919,31.164916138074382,36.459919992392486,0.6913618169854848,34.6875,37.96875000000001,28.905161838974564,6,6.185567010309279,216.18354466771092,101.44594042492604,101.5119043875082,419.14138948014516,0.9993501849563343,0.028368794326241134,0.05673758865248227,0.2836879432624113,49.98374934394796,50.01625065605203,20.43606105452647,38.932694714311495
62,1640.7866856235814,35.562749504351125,36.58508632204542,0.7966896667296578,34.6875,38.4375,29.52419360169917,7,7.291666666666667,267.1723574933232,112.09893309084941,66.4798664464679,445.7511570306405,1.6862087588746244,0.027972027972027972,0.055944055944055944,0.2517482517482518,62.77281143186557,37.22718856813443,20.87463373448029,45.57217159693247
63,1639.0977191649672,36.89915852922323,36.62414882204542,0.828465829339246,34.6875,38.4375,28.830728420805343,6,6.25,173.3194561727334,96.82770975395646,104.47089229639678,374.6180582230867,0.9268391187781216,0.027972027972027972,0.08391608391608392,0.2517482517482518,48.10153114214663,51.89846885785338,20.384116461628654,48.165838401573815
64,1638.384688705101,35.54278993341072,36.63879725954542,0.8005294416822447,35.15624999999999,38.4375,27.74187827622922,5,5.208333333333333,257.13236655286005,92.17158693880792,131.35500177651852,480.6589552681865,0.7016983418387409,0.027972027972027972,0.055944055944055944,0.2517482517482518,41.235178091584245,58.76482190841574,19.616470251973453,46.083548550293614
65,1636.3687048370186,34.27198952987204,36.68274257204542,0.7732257802812218,35.15625,38.4375,27.89514042783175,6,6.25,286.9735511714926,159.94595252294127,93.35444193622129,540.2739456306551,1.7133191437448103,0.027972027972027972,0.055944055944055944,0.27972027972027974,63.14477040766234,36.85522959233766,19.72484295867084,44.001176711914184
66,1641.2657630227957,37.556065511968626,36.57640492053388,0.8417484230292064,34.6875,38.4375,29.27701327271335,7,7.291666666666667,258.742500916852,171.55520366469716,61.43056296118247,491.72826754273166,2.792668590276499,0.027972027972027972,0.055944055944055944,0.27972027972027974,73.63334084702886,26.36665915297114,20.699604607992654,49.11941154470355
67,1646.840438130405,38.589325811679764,36.45360366552425,0.8624697427246493,34.6875,38.4375,29.58074028894122,7,7.142857142857143,193.4598342225806,91.01421983743629,75.0193395115125,359.4933935715294,1.213210092625105,0.028169014084507043,0.08450704225352113,0.1971830985915493,54.81676125858018,45.18323874141982,20.916165074795966,50.681716591666536
68,1654.4088082008923,34.62342823043279,36.2827794684964,0.7671149127205816,34.6875,38.43749999999999,29.889182434242947,7,7.070707070707071,168.87279186216037,52.09430402305421,89.54374868639425,310.5108445716088,0.5817748842021586,0.028368794326241134,0.05673758865248227,0.19858156028368795,36.77987873069585,63.22012126930415,21.129804846570742,44.20835959650049
69,1665.4373253140989,28.484049121118044,36.03713917381144,0.617932450267666,34.6875,37.50000000000001,29.488112331144627,5,5.0,51.40889392286763,96.6877279667824,171.76062550795822,319.85724739760826,0.5629213778235953,0.028368794326241134,0.05673758865248227,0.22695035460992907,36.01725498229965,63.98274501770034,20.84161643501494,34.006545794011245
70,1669.209821015356,29.33482397597772,35.956327128629184,0.6360683940542866,34.6875,37.50000000000001,30.78959453488277,6,6.0,69.93954234099085,186.2800900695159,265.7971589141938,522.0167913247005,0.700835519952461,0.028368794326241134,0.05673758865248227,0.19858156028368795,41.2053671111037,58.794632888896295,21.76950189021323,35.35598303670581
71,1662.8758883264504,33.25652691517238,36.09660264225112,0.7270298141431861,34.6875,38.4375,30.878978394629147,6,6.0,35.90087762443652,167.3627975943395,254.00655375300664,457.2702289717827,0.6588916511070866,0.028169014084507043,0.056338028169014086,0.16901408450704225,39.71878758129654,60.28121241870346,21.834204407948803,41.86561621464027
72,1650.7716276316444,38.47452130863664,36.36651782045568,0.8532714038894438,34.6875,38.43750000000001,31.22301696819078,7,7.070707070707071,229.09396585772902,156.4307627206315,220.9206445812301,606.4453731595906,0.7080857609172583,0.028169014084507043,0.056338028169014086,0.16901408450704225,41.45493025695674,58.54506974304326,22.07591872760305,49.92455894281767
73,1647.7187627707576,39.07885982963402,36.43460271159411,0.8697992501140209,34.68750000000001,38.43750000000001,30.283145517111098,6,6.122448979591836,282.5491866935485,186.32390625343754,170.71062167463066,639.5837146216168,1.091460533771386,0.027777777777777776,0.05555555555555555,0.16666666666666666,52.18652306114669,47.81347693885331,21.411050022164538,50.87974735849346
74,1650.8288961489768,38.063854731489,36.364926107914314,0.8481380000283171,34.68750000000001,38.43750000000001,28.70697131316356,6,6.315789473684211,404.1092937618756,208.96986554823772,195.38094353689465,808.460102847008,1.0695509079102028,0.027972027972027972,0.055944055944055944,0.22377622377622378,51.680338174923996,48.319661825076004,20.296747553874663,49.87451157452138
75,1651.2745201555877,38.85293858010785,36.35592815430687,0.8655999385528045,34.68750000000001,38.43750000000001,26.797010062064444,6,6.666666666666667,358.6409762759352,169.0374739325124,307.63907793733637,835.3175281457841,0.5494668462338325,0.029197080291970802,0.058394160583941604,0.17518248175182483,35.46167170787671,64.5383282921233,18.944411944188907,51.52579574925236
76,1643.7714972250212,37.02006451860546,36.520067891847226,0.8281780703998026,34.68750000000001,38.43750000000001,26.378526967097198,7,7.865168539325842,277.9335514453035,127.50453659237719,261.3865215582415,666.8246095959222,0.48780073215813063,0.0273972602739726,0.0547945205479452,0.2191780821917808,32.78669795050785,67.21330204949216,18.652435296146642,49.10693256599437
77,1647.8247963343078,36.22751126482061,36.42942887513875,0.8095347765349921,34.68750000000001,38.43750000000001,27.0768381495659,7,7.954545454545454,256.3012097262496,191.5662792328622,125.1777797336618,573.0452686927736,1.5303537068675757,0.028169014084507043,0.056338028169014086,0.22535211267605634,60.479833420682546,39.520166579317454,19.14547147347916,47.74003721579696
78,1660.993367434936,31.949766043780976,36.1364394883096,0.700936329222365,34.6875,37.96875,25.92059014510482,5,5.617977528089888,89.0892522347073,137.1104191063031,134.48529383553017,360.6849651765406,1.0195197942905443,0.028368794326241134,0.05673758865248227,0.19858156028368795,50.48327811259214,49.516721887407854,18.328625063960818,41.11794925177275
79,1660.1869909861102,29.828795987324565,36.15218504141186,0.650158542371594,34.6875,37.96875,26.047962273176456,4,4.444444444444445,75.91065850939188,119.21050024490134,113.08422720589388,308.2053859601871,1.0541744254736187,0.02857142857142857,0.05714285714285714,0.19999999999999998,51.31864229253872,48.68135770746128,18.418690659518262,38.21181677166432
80,1660.3974499138562,30.795895618991036,36.14834925862004,0.6700070563482632,34.6875,37.96875,29.45990849432664,6,6.451612903225806,28.36701989823697,300.0823942404932,64.2165225343292,392.6659366730594,4.672977956414155,0.028368794326241134,0.05673758865248227,0.1702127659574468,82.37257384599302,17.627426154006987,20.830586037207613,38.12773939897148
81,1663.7677330836023,32.873685464402236,36.076782422611274,0.7116612321167108,34.21875,37.96875,30.47738574237468,6,6.122448979591836,2.1808367495258487,333.50476599830426,35.26918392882197,370.9547866766521,9.45598193231129,0.0,0.08571428571428572,0.17142857142857143,90.43609671024986,9.563903289750142,21.545165876078993,40.91585292177164
82,1670.4667731701659,30.536809600111166,35.930096234473446,0.6561852787307869,34.21875,37.5,29.70842671886041,4,4.0,66.19291203301756,161.98291666165298,28.783978903062938,256.95980759773346,5.627537360528574,0.028368794326241134,0.05673758865248227,0.19858156028368795,84.91143926316175,15.088560736838241,21.004765389145277,37.839933614416104
83,1670.3954019731839,30.905271316140144,35.931936279495474,0.6648538757704351,34.21875,37.5,29.732604181134025,4,4.0,123.21738070916918,87.66534688362239,28.746046224858233,239.6287738176498,3.049648852502488,0.028368794326241134,0.05673758865248227,0.1702127659574468,75.30650097274365,24.693499027256355,21.021977129140144,38.22732468842182
84,1665.6022613394657,30.00479678770236,36.034652545022034,0.6467216124164952,34.21875,37.5,30.139182687171445,5,5.0,217.63611044709165,90.21844184656268,23.869641833067398,331.7241941267218,3.77963115146454,0.028368794326241134,0.05673758865248227,0.1702127659574468,79.07788345354669,20.922116546453324,21.311620457519123,36.77298797393103
85,1672.5112978440748,31.285419251491124,35.8867228168535,0.6698304257804808,34.21875,37.5,32.65092799881691,9,8.910891089108912,148.7385703592699,107.69809560438489,19.54271522031168,275.97938118396644,5.510907486000159,0.028169014084507043,0.056338028169014086,0.3098591549295775,84.64115790079627,15.358842099203736,23.087146546942307,37.827888801504024
86,1673.2921024992602,32.03549344721617,35.870590045022034,0.6861617453419385,34.21875,37.5,33.86923087013886,11,11.0,188.75994466399868,110.87518682222984,27.18360783758599,326.8187393238145,4.0787517052436995,0.028368794326241134,0.05673758865248227,0.3120567375886525,80.31012228915382,19.68987771084619,23.94916282184794,38.694746624146084
87,1662.6605022267863,32.24016925111516,36.10027754502203,0.6982955771429817,34.68749999999999,37.96875000000001,33.92147377598476,11,11.0,81.1122627559116,141.91709608751643,35.274901579153685,258.3042604225817,4.023174827832398,0.028368794326241134,0.05673758865248227,0.3120567375886525,80.0922716354764,19.9077283645236,23.98562111656721,38.98421206005971
88,1655.924054256339,32.16340070611559,36.24712378285054,0.699311660432896,34.68749999999999,37.96875000000001,33.753828741491056,12,12.121212121212121,185.61208477828282,199.21643793723126,33.23387186160863,418.0623945771227,5.994379432128813,0.028368794326241134,0.05673758865248227,0.19858156028368795,85.70280595006784,14.297194049932168,23.867039403982496,38.881527447371354
89,1661.837288665525,34.56405512075393,36.12016705975552,0.7478639633455744,34.68749999999999,37.96875000000001,35.70857845607052,14,14.0,130.58387385501595,174.0621781255369,39.26565933015049,343.9117113107033,4.4329365938312835,0.028368794326241134,0.05673758865248227,0.1702127659574468,81.59374800848164,18.406251991518353,25.247684731182968,41.519875672241064
90,1663.2495510172992,34.46102692215968,36.089408515072044,0.7458089967920383,34.68749999999999,37.96875000000001,35.90892515394618,14,14.141414141414142,176.01212505192493,121.07100661866784,71.70090119403264,368.7840328646254,1.6885562747814398,0.02857142857142857,0.05714285714285714,0.37142857142857144,62.80531639304099,37.19468360695901,25.39097883779308,41.82773119666821
91,1658.7568874843919,33.157558605657414,36.18606018414472,0.7203242948066475,34.6875,37.96875000000001,36.12117977456618,13,13.131313131313131,79.19605729370036,213.35468611547682,92.5692778997331,385.1200213089103,2.304810958410771,0.02857142857142857,0.05714285714285714,0.17142857142857143,69.7410831486445,30.258916851355504,25.53590720824267,39.22209199637467
92,1652.2380942948937,32.25760036426366,36.328105638690175,0.703320905897424,34.6875,37.96875000000001,34.302153355345425,10,10.1010101010101,144.64026908709369,296.26415104746144,65.40016135406077,506.3045814886159,4.530021714221139,0.027972027972027972,0.11188811188811189,0.16783216783216784,81.91688836540413,18.083111634595856,24.254797791204513,38.880570074320616
93,1657.863042908333,32.527401014031184,36.20499957808411,0.7051638882865817,34.6875,37.5,35.909559755173944,12,12.121212121212121,61.35427476414515,211.5015384948995,40.178991509743774,313.03480476878843,5.263983254622218,0.02857142857142857,0.11428571428571428,0.2571428571428571,84.03571722095367,15.96428277904632,25.390077476742256,38.44753185631483
94,1660.4080330824288,33.666721100039965,36.15043208734057,0.7269485769523609,34.6875,37.5,35.69004428130387,12,12.0,74.0713747649873,157.09764946548214,51.070171086753746,282.23919531722316,3.0761136319402134,0.028169014084507043,0.056338028169014086,0.16901408450704225,75.46682722081023,24.533172779189773,25.236213249630374,40.60857867602043
95,1653.7239643897146,31.910406664023313,36.29512852998785,0.6934958944376208,34.6875,37.5,35.504132232400906,11,11.11111111111111,29.79621561603308,271.04175940734524,53.58973650276978,354.4277115261481,5.057717710430176,0.027972027972027972,0.055944055944055944,0.16783216783216784,83.49213271727403,16.507867282725975,25.103376190418587,37.614314612957855
96,1653.314277810604,33.00905290988983,36.30507987452217,0.7183883789487089,34.6875,37.5,37.81564301427667,15,15.0,36.565821119983845,458.14001977032456,45.51967546163918,540.2255163519476,10.064659185815442,0.027777777777777776,0.05555555555555555,0.19444444444444442,90.96221597785886,9.03778402214114,26.739264333031116,38.520740509486025
97,1656.5977110897313,34.29348341124791,36.234237093070924,0.7453563740411732,34.6875,37.5,38.519900379823696,15,15.151515151515152,51.81192155651084,342.30657808910183,46.524984990185644,440.64348463579836,7.357478528178155,0.028368794326241134,0.05673758865248227,0.19858156028368795,88.03466863087483,11.965331369125153,27.230161953623558,39.711135026243646
98,1660.308608039586,34.208723860271355,36.15314472214021,0.74204530035152,34.6875,37.5,38.48396932886223,15,15.0,85.58758421277776,99.02562177745303,49.313155712264304,233.92636170249506,2.0080974406759595,0.028169014084507043,0.08450704225352113,0.22535211267605634,66.75639603698188,33.243603963018124,27.21061547217375,40.090958719793385
99,1655.7628142073509,34.989320712992374,36.253176487010315,0.7621997022202848,34.6875,37.5,37.276930643058684,13,13.131313131313131,107.21358841380105,127.71850435792688,34.97645878997474,269.90855156170267,3.6515561831129304,0.028368794326241134,0.05673758865248227,0.19858156028368795,78.50181830264863,21.49818169735137,26.358770439527408,41.53653582842588
100,1661.6840943730483,36.36869186148315,36.12523957899552,0.7903411074888581,34.6875,37.5,39.20078948604467,15,15.151515151515152,40.455059490476415,350.1433842489348,20.018889264147216,410.61733300355843,17.490649937108316,0.02857142857142857,0.05714285714285714,0.34285714285714286,94.59186127366388,5.4081387263361185,27.715494537408762,43.18543721593335
101,1669.5000401347925,36.199255246049006,35.95582496610264,0.7806764568484851,34.21875,37.5,39.608134095550206,17,17.0,117.08331703069499,453.44210332908585,34.39148402244774,604.9169043822285,13.184720468390333,0.028368794326241134,0.05673758865248227,0.2836879432624113,92.95016068713916,7.04983931286084,27.996815955173634,42.4269437612697
102,1675.6268848377097,36.562532126955034,35.82457496610264,0.7830407094330709,34.21874999999999,37.5,40.519034495210775,18,18.0,146.61308060968486,282.19725986566084,66.39457683450821,495.2049173098539,4.250305873159664,0.02857142857142857,0.05714285714285714,0.2857142857142857,80.95349063161926,19.046509368380747,28.65128405869518,43.1287290000508
103,1674.3884807983643,35.86761464079205,35.85044551099271,0.7689870238404124,34.21874999999999,37.5,38.47771631451173,17,16.831683168316832,103.03782903659753,73.6932065040307,64.01848881479857,240.7495243554268,1.1511238060807787,0.028169014084507043,0.08450704225352113,0.2535211267605634,53.51267104323757,46.48732895676243,27.20743678256739,42.96216726610364
104,1674.7223261793642,36.40568453156805,35.84382662362919,0.7819199073545471,34.21874999999999,37.55016575265559,41.99632354203585,21,21.0,83.61292246489771,13.448598034949967,32.623537739587874,129.68505823943553,0.4122360408089776,0.02877697841726619,0.05755395683453238,0.2302158273381295,29.19030734924698,70.80969265075302,29.694363812780605,41.99918432593739
105,1673.0732244673957,38.55147614944478,35.88133741916687,0.8331204040047944,34.21874999999999,37.96875,43.04569980490843,24,23.762376237623762,78.89905306319768,17.58742589257661,62.89724210569077,159.38372106146505,0.27962157487005856,0.02857142857142857,0.05714285714285714,0.39999999999999997,21.85189593247154,78.14810406752846,30.428060732341216,44.89644638421647
106,1663.0151517814345,41.36364743218716,36.1015133272559,0.903765430536476,34.21874999999999,38.4375,45.553159090788476,25,25.0,97.71075520080507,46.25133210683191,132.08970838069786,276.05179568833483,0.35015091390413405,0.028368794326241134,0.14184397163120566,0.3971631205673759,25.934205598663624,74.06579440133636,32.21058801629437,49.132546279215475
107,1652.8606969125638,41.92255735540443,36.324129623490805,0.9242015541669153,34.21874999999999,38.43750000000001,46.40098447173514,24,24.242424242424242,107.87520591018671,85.48910498241156,145.29923620147957,338.66354709407784,0.5883658250196709,0.028368794326241134,0.14184397163120566,0.1702127659574468,37.04221129363472,62.95778870636528,32.79709579860965,48.84164358100422
108,1644.7397432248933,37.86365992830279,36.4993190174302,0.8422856714535267,34.68750000000001,38.43750000000001,45.57947470031773,21,21.21212121212121,101.10098527897173,72.00741522148557,105.32143035589704,278.42983085635433,0.6836919606784833,0.027972027972027972,0.11188811188811189,0.16783216783216784,40.60671290507164,59.39328709492837,32.22916923432485,42.878905423839605
109,1645.3152486012916,38.6950429971833,36.487374071507624,0.8591747121270551,34.6875,38.43750000000001,44.84203560524074,20,20.408163265306122,140.8846314754573,55.584502397816706,93.20496142899881,289.6740953022728,0.5963684931103113,0.028169014084507043,0.11267605633802817,0.16901408450704225,37.35782156088327,62.642178439116734,31.70185897981226,44.51142117507663
110,1638.9002028150555,38.768881630714795,36.630357074031544,0.8644093105444152,34.6875,38.43750000000001,44.158461173103774,18,18.367346938775512,102.27928561553455,186.95837934281934,84.11191878315861,373.3495837415125,2.2227334966023062,0.027972027972027972,0.055944055944055944,0.2517482517482518,68.97044074372612,31.029559256273888,31.22144043794412,45.175012364272035
111,1634.3937284822898,40.14526919111384,36.73295996206283,0.9000993091864975,34.6875,38.43750000000001,43.663758965800376,16,16.3265306122449,274.75163848971886,445.76146484097615,97.8455249314964,818.3586282621914,4.555767523890976,0.027972027972027972,0.055944055944055944,0.2517482517482518,82.00068675120426,17.99931324879575,30.874528334297217,47.637138445184874
112,1632.7126756690163,41.60023059100571,36.77243583195127,0.9336292151592493,34.6875,38.69292876045017,39.79277207286259,13,13.26530612244898,253.64556135105528,405.8456179799519,127.82621229513015,787.3173916261374,3.174979612498567,0.027972027972027972,0.055944055944055944,0.2517482517482518,76.04778722735996,23.952212772640056,28.135441076368082,51.22485666417599
113,1622.4391445734313,47.62615179152039,37.013111703919186,1.0823624964108143,34.6875,39.375,37.080934693449784,13,13.26530612244898,101.54049922393935,205.37448209480124,184.19399644297022,491.10897776171083,1.1149900977276905,0.0273972602739726,0.0547945205479452,0.273972602739726,52.71845475426183,47.28154524573817,26.1940953587194,61.286824808065816
114,1619.1411385052838,47.35215059320035,37.08818490547602,1.0777188550905576,34.6875,39.375,39.16843729443984,17,17.52577319587629,76.48334565615609,371.4742119615143,325.6525965754409,773.6101541931113,1.1407070475344985,0.0,0.05555555555555555,0.2777777777777778,53.286462005545175,46.713537994454825,27.69204715632097,60.65183160114105
115,1615.9647639693367,46.034972461754414,37.159369672002036,1.0483146380641957,34.636311103731245,39.375,41.636146590750144,19,19.587628865979383,215.31132219860433,586.4737439888598,313.8593625686475,1115.6444287561117,1.8685876986084364,0.027777777777777776,0.05555555555555555,0.19444444444444442,65.13963995295998,34.86036004704001,29.441198313403564,58.32280539996164
116,1628.0793068206415,53.098801959778136,36.892363681121005,1.2001212875492546,34.636311103731245,39.375,40.837713725434135,20,20.408163265306122,549.203372631926,520.8479826280803,242.28713796689203,1312.3384932268984,2.1497137115848592,0.027586206896551724,0.05517241379310345,0.19310344827586207,68.25108274691975,31.74891725308026,28.8570870798175,68.94302884543715
117,1644.373318512347,57.823248894734846,36.533626436223045,1.2963609949865516,34.21875,39.375,39.81143969496776,18,18.367346938775512,498.3004885127063,327.80626389058835,369.63016721114036,1195.736919614435,0.8868493239171646,0.02857142857142857,0.05714285714285714,0.34285714285714286,47.00159746068302,52.99840253931699,28.14087550980505,76.71288683788154
118,1658.1627310824415,58.72232285044303,36.23095722480589,1.3090035988385087,34.21875,39.375,39.65467794544725,18,18.181818181818183,339.34068110683927,171.30452854247562,323.89139907231043,834.5366087216253,0.5288949599561025,0.02857142857142857,0.14285714285714285,0.17142857142857143,34.59328297944602,65.40671702055398,28.03321410993726,77.89938460942447
119,1675.0804930780332,43.62460436944443,35.843849613275104,0.9479022925266916,34.21875,38.4375,41.13988713759633,20,20.0,227.15359405349557,82.56714695487236,159.98362842226373,469.70436943063163,0.516097476780206,0.02877697841726619,0.14388489208633093,0.17266187050359713,34.04118037820773,65.95881962179227,29.080814336261813,53.910615227750164
120,1677.2785167418933,42.289198590037266,35.795311460971995,0.9156717141790246,34.21875,38.327677772894056,39.73340786336502,17,17.708333333333332,187.8661425686956,137.63517201499678,176.65803615354815,502.1593507372406,0.7791050722162826,0.02877697841726619,0.05755395683453238,0.2302158273381295,43.79196509432289,56.20803490567711,28.093824634492464,53.04317368969684
121,1672.456047104209,42.69721477396679,35.898971819709566,0.9243462176671373,34.21875,38.327677772894056,37.82594586187316,16,16.666666666666668,165.05822858530718,245.35942839814462,362.7183673636035,773.1360243470554,0.6764461093644769,0.02877697841726619,0.08633093525179857,0.3165467625899281,40.350006217671414,59.649993782328586,26.746982823725737,54.46930476050529
122,1669.4009594548754,43.61137713336821,35.96573515581815,0.9458159266436184,34.21875,38.327677772894056,37.60340616011768,16,17.02127659574468,208.73927025397433,388.42118121555177,619.1566252110268,1216.3170766805529,0.6273391342346799,0.02877697841726619,0.08633093525179857,0.2589928057553957,38.549993731313464,61.450006268686536,26.589075294563855,55.860100726933645
123,1666.6593389301672,42.55336929446893,36.023788235522524,0.9258043302398163,34.21875,38.327677772894056,38.97258633814748,18,19.148936170212767,249.98062756535384,394.5951554313709,561.3190994497486,1205.8948824464733,0.7029783162878045,0.028169014084507043,0.056338028169014086,0.2535211267605634,41.279346281999324,58.72065371800068,27.557222164808767,53.29625932509616
124,1661.468766763435,40.486419500517016,36.13419445797537,0.8853406004767845,34.6875,38.327677772894056,42.41438885968634,21,22.340425531914892,129.11529926825403,209.51335929447984,454.19907551698213,792.827734079716,0.4612809021154564,0.028169014084507043,0.056338028169014086,0.2535211267605634,31.566887752222907,68.43311224777709,29.987349032763763,48.86271935584061
125,1655.1244312894655,41.17658083032464,36.27355897821727,0.9049887431990666,34.6875,38.327677772894056,41.49569192882708,18,19.35483870967742,194.58525008398308,77.39554147820695,324.00893402081033,595.9897255830003,0.23886854142495964,0.029197080291970802,0.11678832116788321,0.20437956204379562,19.281185488026885,80.71881451197312,29.33510069757981,50.05153882240898
126,1656.3657757925066,39.368831483144575,36.24441059378831,0.8639029705646019,34.6875,37.96875,40.11466560310949,18,18.556701030927837,176.0887223535285,111.93014258997493,224.1007268066925,512.1195917501959,0.4994635411714884,0.028368794326241134,0.05673758865248227,0.19858156028368795,33.30948218862805,66.69051781137195,28.36384712622282,48.00356768622741
127,1665.0972044495486,38.57726100103715,36.05347127064774,0.8436067128808988,34.68749999999999,37.96875,39.93081330526806,18,18.367346938775512,163.43925697437535,259.41074095327474,166.35107830204356,589.2010762296936,1.5594172493565854,0.028368794326241134,0.05673758865248227,0.3404255319148936,60.92860590623154,39.071394093768454,28.23487432160456,46.77695314455604
128,1672.0580324635466,41.6123606075676,35.90629451214809,0.8993546385235159,34.21875,37.96875,39.36248394940286,17,17.0,360.73899261493085,268.9741345106422,98.71203491994467,728.4251620455177,2.724836284945193,0.028368794326241134,0.05673758865248227,0.3404255319148936,73.15318248907377,26.846817510926225,27.83296478760856,51.205465453856874
129,1674.8653005037145,42.52328042177237,35.84703711722598,0.9165739646854937,34.21875,37.96875,37.859747993376075,16,16.0,324.0454501623646,125.57691154560281,80.70452975679072,530.3268914647581,1.5560082181760857,0.02877697841726619,0.05755395683453238,0.2302158273381295,60.87649511887801,39.12350488112198,26.759462547338714,53.62627301686589
130,1676.2998326638528,42.200561614753305,35.81599514451799,0.9090885510398514,34.21875,37.96875,37.62096962126971,16,16.161616161616163,300.63149140632225,89.77077707867201,154.88014655390407,545.2824150388983,0.5796144895009409,0.02877697841726619,0.05755395683453238,0.2302158273381295,36.69341433326955,63.30658566673045,26.60202589222576,53.55033993806756
131,1679.1270367584266,39.3927127221018,35.752638581248014,0.843682000259614,34.21875,37.96875,39.02179029656898,19,19.0,306.6239977814012,102.6806468741527,202.70668592094728,612.0113305765012,0.506547903970946,0.02857142857142857,0.05714285714285714,0.22857142857142856,33.623086437264384,66.37691356273562,27.582579005374946,47.687530216916834
132,1680.797185356475,40.45131906576757,35.71823163983834,0.8681319533570802,34.21875,38.14101339439174,41.25627459680788,20,20.0,210.25850712957984,124.75781375399289,150.4390632969648,485.4553841805375,0.8292913490675128,0.02877697841726619,0.05755395683453238,0.2302158273381295,45.33402235189308,54.66597764810691,29.172591533897148,48.78355247845655
133,1677.7603898048224,41.352839504808856,35.78385663983835,0.8887317762327372,34.21875,38.14101339439174,42.517733720325786,21,21.0,174.5294484480241,114.63851409485274,238.0694324242611,527.237394967138,0.4815339496863949,0.02857142857142857,0.05714285714285714,0.3142857142857143,32.5023904979244,67.4976095020756,30.06110710568329,50.1679614068965
134,1667.8586491500632,38.27969140498574,35.993316209818744,0.8300473936069402,34.68749999999999,38.14101339439174,41.47907055693371,21,21.21212121212121,84.12008363872614,114.0367460925499,345.7563629703145,543.9131927015906,0.32981821393794775,0.028368794326241134,0.0851063829787234,0.3120567375886525,24.801751884663073,75.19824811533694,29.330132068123095,45.82236656282571
135,1663.3772957498072,35.82969630467858,36.08801317951571,0.781187750571955,34.68749999999999,38.14101339439174,43.388034495974566,24,24.242424242424242,28.895898775145472,152.2706371373049,250.61581593055303,431.7823518430034,0.6075859042331946,0.028368794326241134,0.11347517730496454,0.2836879432624113,37.794926083468496,62.205073916531504,30.677208943824912,40.43588276260104
136,1662.5251564677556,35.538953565086935,36.106251733224646,0.7754667990546174,34.68749999999999,38.14101339439174,44.98147617742716,26,26.0,13.522212679525715,132.03017642135117,93.27799032316405,238.83037942404093,1.4154483384979581,0.028368794326241134,0.0851063829787234,0.2836879432624113,58.59981834172251,41.40018165827748,31.803251218858133,38.92950887535712
137,1666.17408652208,38.203424465840804,36.02955804068046,0.8252790658539866,34.21875,38.14101339439174,43.13440190856647,22,22.22222222222222,24.597334404445064,111.89666756445237,52.0747530708324,188.56875503972984,2.148770007843337,0.02857142857142857,0.08571428571428572,0.2571428571428571,68.24156742127627,31.758432578723728,30.50022209137023,44.850788308660086
138,1655.7293487804411,46.47472467319855,36.26664060375938,1.0279677420909739,34.21875,38.90625000000001,42.86609929679977,25,25.252525252525253,211.946587089277,310.5799323779897,118.7260487909054,641.252568258172,2.6159375768073283,0.028368794326241134,0.11347517730496454,0.3120567375886525,72.34465532773538,27.655344672264622,30.309534965074164,58.08189262524458
139,1652.2681319436635,46.561438674124545,36.34271950588583,1.029833869724258,34.21875,38.90625000000001,42.891116621372205,26,26.262626262626263,351.960069350376,821.9054350815584,210.89295434429698,1384.7584587762312,3.8972636029354604,0.028368794326241134,0.05673758865248227,0.1702127659574468,79.58043346082918,20.41956653917081,30.328247349862494,58.49486929816654
140,1652.0947686537756,48.099027557575994,36.34847121332948,1.0634873159959635,34.21875,38.90625000000001,47.96142957257435,32,32.323232323232325,445.4554526410066,959.8991333534416,199.5070501290173,1604.8616361234654,4.811354449542979,0.028368794326241134,0.05673758865248227,0.36879432624113473,82.79230756474263,17.207692435257375,33.91071221432751,59.18807018018857
141,1650.1175154492723,47.11149248837745,36.390805950800754,1.0430436022712417,34.21875,38.90625000000001,47.2818845342849,31,31.31313131313131,346.70742891231663,495.6814982607116,173.91331587250406,1016.3022430455322,2.8501641508813274,0.027972027972027972,0.055944055944055944,0.36363636363636365,74.02708142272081,25.972918577279195,33.4333411814722,57.814615580926066
142,1650.2511089707075,46.14501022437752,36.38671069285302,1.023765084150213,34.21875,38.90625000000001,45.23606228842515,28,28.282828282828284,109.88100402819684,108.1416231441484,142.77897711193427,360.8016042842795,0.7574057843219365,0.027972027972027972,0.08391608391608392,0.3916083916083916,43.09794533959429,56.90205466040572,31.985040160541047,56.587403709455586
143,1649.347211072812,42.604840317277066,36.40269250699435,0.9552357019697271,34.68749999999999,38.90625000000001,45.915026198111676,28,28.282828282828284,84.43820293257453,25.28165604602517,77.04887024797543,186.76872922657512,0.3281249415424035,0.028368794326241134,0.05673758865248227,0.3120567375886525,24.70587903886054,75.29412096113946,32.45815938466049,50.51839073292734
144,1665.1151380852427,33.235980180628886,36.048040581924404,0.7264534277779189,34.68749999999999,37.96875000000001,44.77624335684783,25,25.0,30.079684606798835,27.953912886350867,41.00383213400658,99.03742962715629,0.6817390334394442,0.02857142857142857,0.05714285714285714,0.3142857142857143,40.53774217544152,59.46225782455848,31.658113859094755,34.7246833630194
145,1669.4049723908768,32.079290135816315,35.95435502266272,0.6978107501563623,34.68749999999999,37.96875000000001,45.01111253318651,25,25.0,11.3561617100334,39.317306218442724,20.397943514310953,71.07141144278708,1.9275132412666096,0.02877697841726619,0.08633093525179857,0.3165467625899281,65.84131590238879,34.158684097611214,31.827662900966985,32.58033140464991
146,1674.156600920736,29.597553856250332,35.850223332293496,0.6382894649424083,34.68749999999999,37.50000000000001,42.48621460000052,21,21.0,0.5121041756724376,64.44218012519568,43.281564656941704,108.23584895780982,1.4889059726924667,0.02877697841726619,0.08633093525179857,0.2589928057553957,59.82170435638383,40.17829564361617,30.041904804768173,29.23331850896187
147,1675.0258224838833,29.807294997770043,35.831749442196944,0.6410861905385489,34.68749999999999,37.03125000000001,42.38959728680866,19,19.0,1.8928185589753745,62.70391493050451,149.0986312427787,213.6953647322586,0.42055325664528154,0.02877697841726619,0.08633093525179857,0.2589928057553957,29.604891944596453,70.39510805540354,29.973604491691848,29.224600574885795
148,1676.407438841055,32.130429954973415,35.804051931479336,0.690441749718179,34.21875,37.5,44.91772872956349,23,23.0,4.011845430550159,42.885180901118204,165.69237855447898,212.58940488614735,0.2588241008744873,0.02877697841726619,0.05755395683453238,0.28776978417266186,20.560783726231953,79.43921627376804,31.75922818168039,32.58071453818348
149,1674.6774734427295,35.90627433690429,35.84447762838552,0.7784138745618102,34.21875,38.4375,44.203511849889544,23,23.0,4.1811189224892304,82.75111490494328,71.0927007286051,158.0249345560376,1.1639889054270696,0.02877697841726619,0.05755395683453238,0.28776978417266186,53.78904219462035,46.21095780537964,31.23927635457112,38.552917231187074
150,1668.4130937135485,37.256229760544926,35.98041512838552,0.8108127699177947,34.21875,38.4375,44.019571776864474,22,22.0,22.87708319330663,235.16202677469056,79.57216038735959,337.6112703553568,2.9553304275002086,0.028368794326241134,0.0851063829787234,0.2553191489361702,74.71766219460947,25.28233780539053,31.126165496080077,42.74606943534152
151,1667.392270081532,37.33073967868687,36.00255815610305,0.8143280362904431,34.21875,38.4375,44.9193843759213,23,23.232323232323232,56.02754150490213,463.5149817241263,163.65442204734845,683.1969452763769,2.8322789932924777,0.02857142857142857,0.08571428571428572,0.2571428571428571,73.90586641133721,26.094133588662775,31.759616427854123,41.95062789972156
152,1666.35787092562,36.7672429746341,36.02438657315024,0.8032278895142712,34.21875,38.4375,45.1233799152519,25,25.0,82.93864231164986,439.6615307815407,163.11416115591135,685.7143342491019,2.6954221979616704,0.028169014084507043,0.056338028169014086,0.28169014084507044,72.93949252803692,27.060507471963078,31.905557000092713,41.26991694597262
153,1669.4503816391834,37.93012837892501,35.958761573150234,0.8273444428377569,34.21875,38.4375,46.318977950093526,26,26.0,95.03064707907514,180.01353559024352,112.62595859651454,387.6701412658332,1.5983307741259434,0.028368794326241134,0.0851063829787234,0.2836879432624113,61.51375298487963,38.48624701512038,32.7524634061413,42.49078107049313
154,1664.0087147891725,37.24890431633153,36.075784770936124,0.8169715919375788,34.6875,38.4375,45.98951237222646,27,27.272727272727273,57.79530986165005,68.69171091408184,82.64960382330827,209.13662459904015,0.8311196634521542,0.02857142857142857,0.08571428571428572,0.3142857142857143,45.38860458115935,54.61139541884064,32.519132485399844,41.71702172971039
155,1665.5680814000964,34.2936913157094,36.039147485346085,0.7482877686506743,34.6875,37.96875,45.00423985727897,25,25.0,75.9250783400681,108.17086586293672,65.88121535528043,249.97715955828525,1.6419075646919854,0.028368794326241134,0.05673758865248227,0.3120567375886525,62.14856214636003,37.851437853639965,31.816817205423053,36.40574354909694
156,1671.5168094191633,33.708447165387334,35.910275338728894,0.7308550294473104,34.6875,37.50000000000001,45.37310445015262,25,25.0,36.098514847665186,228.58530440848057,80.74718974817836,345.4310090043241,2.830876283389632,0.02877697841726619,0.05755395683453238,0.3165467625899281,73.89631180897386,26.103688191026123,32.082067510627674,35.39419220358824
157,1670.4237724982781,33.66224748016112,35.933712838728894,0.7288441563765615,34.6875,37.50000000000001,43.3385628521011,23,23.0,27.81164774243873,223.21126053080008,144.95591772486733,395.9788259981061,1.5398561440897143,0.028368794326241134,0.05673758865248227,0.3120567375886525,60.62769136248067,39.37230863751933,30.64499167960009,36.69048207872002
158,1667.3313817101787,35.59716504805603,36.002188229451434,0.7749527852568637,34.6875,37.96874999999999,44.31531010583352,24,24.0,26.254106372930355,118.77598311542761,161.29423822687932,306.32432771523725,0.736393217892602,0.028368794326241134,0.05673758865248227,0.1702127659574468,42.40935810532225,57.59064189467775,31.33521099986422,39.68224791731009
159,1657.4595829901675,37.094860596160785,36.21827741131485,0.8179403459339687,34.6875,38.4375,42.763604025482884,23,23.46938775510204,91.48067200588606,108.45775221102492,93.91192778360067,293.85035200051163,1.1548879335215212,0.028368794326241134,0.05673758865248227,0.3404255319148936,53.59387444497875,46.406125555021255,30.228435165783488,42.50956560259906
160,1657.6456946588205,36.38633435968713,36.21352121812053,0.8024367455789908,34.6875,38.4375,42.34456423189225,23,23.232323232323232,46.08941842520669,201.39030770892967,51.15065079138627,298.6303769255226,3.937199323822555,0.028169014084507043,0.08450704225352113,0.3380281690140845,79.74560202228652,20.2543979777135,29.940588727748736,41.99847172562753
161,1651.1942050032649,38.56961906325597,36.35729952108852,0.8549003884164915,34.6875,38.4375,43.24906804324934,25,25.510204081632654,16.371215224063253,314.0188081226864,68.10123605652379,398.4912594032734,4.611058863337691,0.027972027972027972,0.11188811188811189,0.16783216783216784,82.17805187299072,17.821948127009282,30.57487221416954,44.78573825411335
162,1639.2938898022185,40.14900224206176,36.623351213694775,0.9079170471459259,35.15624999999999,39.375,48.39196330750816,33,34.02061855670103,16.684705621241825,233.22904960753397,112.9910977786887,362.90485300746445,2.0641365044912714,0.027972027972027972,0.08391608391608392,0.22377622377622378,67.36437823399037,32.63562176600963,34.214869458194336,45.155324347141246
163,1634.670870405342,39.36593245721861,36.72615572614133,0.8939448993609863,35.15624999999999,39.375,48.905545959104735,35,36.08247422680412,62.28149813300246,148.4014079451154,226.8217191532681,437.50462523138594,0.6542645408874515,0.027972027972027972,0.055944055944055944,0.2517482517482518,39.55017620920913,60.449823790790866,34.5810678943649,43.610787618870575
164,1638.831865314371,43.34694072276534,36.637130542503485,0.9718050739250684,34.11992606693078,39.375,47.28726044620808,33,34.02061855670103,173.70519026462253,129.73661260165346,280.2202551234444,583.6620579897204,0.4629808524887006,0.027972027972027972,0.055944055944055944,0.2517482517482518,31.646405467379584,68.35359453262042,33.437128470446204,51.625045164667604
165,1648.656759895818,45.76211966216816,36.421456225091625,1.0164206794741617,34.11992606693078,39.375,46.62032105373581,32,32.323232323232325,342.0283815642829,125.8777353502882,174.28836382250944,642.1944807370805,0.7222383215352156,0.027972027972027972,0.055944055944055944,0.3076923076923077,41.93602665230484,58.06397334769516,32.96394259270774,55.74024564605299
166,1666.2856501592053,60.68597327846414,36.05581643155422,1.3078794324097547,33.28124999999999,39.375,44.19819787270083,27,27.0,390.39391210147954,240.27955042137398,153.3431110832671,784.0165736061206,1.5669406256594036,0.027972027972027972,0.055944055944055944,0.16783216783216784,61.04311919006241,38.95688080993759,31.25243754316536,80.37190740134163
167,1667.337550836889,60.35285121313957,36.03259235978966,1.3019788703963775,33.28124999999999,39.375,44.46820807743617,27,27.0,635.4899537084852,519.6625841554214,257.6430428580954,1412.7955807220021,2.0169866742399916,0.028368794326241134,0.0851063829787234,0.19858156028368795,66.85434481569561,33.145655184304374,31.440774670973234,79.28142676178095
168,1670.7428393546763,56.510450532847095,35.95290485978966,1.2052939570987884,33.28124999999999,38.43749999999999,40.900489864323504,23,23.0,866.7263648245898,1107.9107700572767,290.62557932835364,2265.26271421022,3.8121584914091153,0.028368794326241134,0.05673758865248227,0.3120567375886525,79.21930456394475,20.780695436055268,28.920669602093348,74.02939361201385
169,1682.6834634499987,61.600424184072125,35.70453809654543,1.2908706060389448,32.29345693628005,38.43749999999999,43.40697093273066,26,25.742574257425744,658.7733068750509,1221.227311333274,182.2835528670539,2062.2841710753787,6.699602307093278,0.02857142857142857,0.05714285714285714,0.3142857142857143,87.01231621951763,12.987683780482369,30.67891507942177,81.44944542830598
170,1669.9693399310495,78.00957800602426,36.008987231105834,1.720997217185564,32.29345693628005,41.25,41.72147554339275,23,23.232323232323232,424.043427173916,766.4412772390181,142.40916110218546,1332.8938655151194,5.381966099000185,0.02857142857142857,0.05714285714285714,0.39999999999999997,84.33084750862807,15.669152491371937,29.479931854994543,105.58395643097604
171,1633.9760989891074,109.37787988940407,36.89044418827068,2.5495477349381828,32.29345693628005,42.65625,40.41470626191739,22,22.68041237113402,578.7575371296767,2293.90930817754,405.23825132046386,3277.9050966276805,5.660643586095007,0.027586206896551724,0.05517241379310345,0.38620689655172413,84.98643581398598,15.013564186014024,28.494365600242077,151.27157306090112
172,1588.7544481071486,104.56138382552248,37.92875266230626,2.487732756673563,32.29345693628005,42.65625,41.52328933878285,25,26.595744680851062,3216.952149737156,5194.503069639267,532.6988196321647,8944.154039008588,9.751294499255954,0.02702702702702703,0.05405405405405406,0.3783783783783784,90.69879445615405,9.301205543845956,29.33007606105525,145.1459987196921
173,1573.228236219963,106.66168429780885,38.30963482813197,2.5354048283499218,32.29345693628005,42.65625,39.56952717110684,23,24.46808510638298,3372.367395992002,3777.4435685352214,304.6093802261643,7454.420344753387,12.400943023260053,0.02666666666666667,0.05333333333333334,0.16,92.5378385814767,7.462161418523288,27.976420501815404,148.76070826470948
174,1582.0164198129467,115.55442069991581,38.12537562513231,2.730963187579939,32.29345693628005,42.65625,38.2494014944783,19,20.652173913043477,4458.40352032644,1094.2043061212582,198.1325527186654,5750.740379166364,5.522587233178957,0.026143790849673203,0.0784313725490196,0.39215686274509803,84.6686603911831,15.3313396088169,27.045877146128205,161.49283698896673
175,1592.9104527338025,123.04927596209242,37.89054293498804,2.8988049688136153,33.28125,42.65625,32.569044806365966,13,13.978494623655914,3550.010462576978,1628.2896791345015,164.94690317385627,5343.2470448853355,9.871598967931288,0.025974025974025976,0.05194805194805195,0.38961038961038963,90.80172104444094,9.198278955559063,23.02683133474601,171.75554902822515
176,1607.8614695734661,122.13471753565794,37.53514961919207,2.880296726986312,33.28125,42.65625,32.46660255815076,13,13.829787234042554,3608.4580354030663,2127.9129967007575,211.03497072452484,5947.406002828348,10.08322454517946,0.026845637583892617,0.053691275167785234,0.21476510067114093,90.97735504749888,9.022644952501121,22.95071693608389,171.60643976326207
177,1631.4585625594145,103.12371451289773,36.92737733469822,2.384183269711228,33.28125,41.71875,38.08720965053103,17,17.894736842105264,3677.1786196744756,1362.4220779340176,327.02466287989296,5366.625360488387,4.166114157678674,0.027777777777777776,0.05555555555555555,0.25,80.64309131625274,19.356908683747264,26.888472328489886,142.72262244338043
178,1655.0081567070524,83.11310963709481,36.347990690048206,1.8833558742964065,33.28125,41.71875,42.18611766075894,18,18.556701030927837,1675.9019133977195,1250.5020839820215,363.13464711991435,3289.538644499655,3.443631980313574,0.027972027972027972,0.055944055944055944,0.2517482517482518,77.49588614830716,22.504113851692846,29.798652966008,112.4559258910487
179,1671.385355063197,62.378054347643705,35.94843396594059,1.3428937313401177,33.28125,38.90624999999999,43.80450405322903,19,19.587628865979383,912.3145011953303,883.3356891292436,236.96354814016036,2032.6137384647343,3.727728150857886,0.028169014084507043,0.056338028169014086,0.22535211267605634,78.8481916030104,21.151808396989612,30.963957183355546,82.54309479765375
180,1653.925567845849,68.41240067689984,36.339233857470454,1.4984903268764809,33.28125,40.21693398512,44.10965113377437,21,21.21212121212121,242.83491810827317,324.0114698984097,104.59994061600891,671.4463286226918,3.0976257538029626,0.027972027972027972,0.055944055944055944,0.3916083916083916,75.59562390313683,24.404376096863185,31.190096469622127,92.07515522266887
181,1633.6092394812158,50.40352641818179,36.76374553575693,1.1437836462458992,33.75,40.21693398512,47.07127964200276,25,25.77319587628866,42.37698957210522,303.6252714592648,155.77866670870742,501.78092774007746,1.949081205239853,0.028169014084507043,0.056338028169014086,0.3943661971830986,66.0911338004791,33.9088661995209,33.27355825572016,61.639117746413895
182,1626.8230851510998,43.023885653693895,36.90801246076455,0.9955104940731432,35.15625,40.21693398512,48.82809876923906,27,27.835051546391753,99.48249068581217,558.0994210773283,278.6363143123431,936.2182260754836,2.00296728175824,0.028169014084507043,0.056338028169014086,0.28169014084507044,66.6996038859771,33.3003961140229,34.518186796268225,49.91665522249755
183,1639.1526616103756,44.47849332734172,36.631846517287364,1.0167316944238343,34.6875,40.21693398512,46.453757548085896,23,23.46938775510204,254.04424922129778,422.9657613568684,249.17789568444684,926.1879062626131,1.6974449527116264,0.027972027972027972,0.055944055944055944,0.27972027972027974,62.92788110486769,37.07211889513233,32.847379979562135,53.77516338199847
184,1640.0973174614608,44.35346680389489,36.6105915392409,1.0138333838522877,34.6875,40.21693398512,46.31429298382839,24,24.742268041237114,141.48607570248836,173.81787938834307,161.62592299953405,476.9298780903655,1.0754331741006928,0.028368794326241134,0.0851063829787234,0.2553191489361702,51.817287471406516,48.18271252859349,32.7477564590625,53.7224073371551
185,1625.979903519245,59.020087289745085,36.95129519158151,1.3917709321722893,34.6875,41.02890091108645,45.89391814999849,25,25.77319587628866,563.848396010811,282.69405889505333,103.80905850505799,950.3515134109224,2.723211856133724,0.027972027972027972,0.055944055944055944,0.2517482517482518,73.14146928403841,26.858530715961592,32.44006150410686,76.3805637128107
186,1620.2097051399644,62.71444459195864,37.08940132317335,1.4778552066471133,34.6875,41.02890091108645,43.44124738692783,23,23.711340206185568,914.2701011876178,511.1247531724686,83.76382995150608,1509.1586843115924,6.101974485507376,0.027972027972027972,0.055944055944055944,0.3916083916083916,85.91940872160767,14.080591278392328,30.711648914194477,83.48322399165322
187,1606.1621184031762,68.05486778467994,37.42427498649155,1.609480699310445,34.6875,41.02890091108645,46.25618615318373,25,26.041666666666668,1112.338707349315,1166.331158815452,149.79447411102024,2428.4643402757874,7.786209509644696,0.027586206896551724,0.05517241379310345,0.38620689655172413,88.61852771775712,11.38147228224289,32.691722913538555,90.35297511023231
188,1579.327785261315,80.19774120579463,38.08920766241041,1.939126449557849,34.6875,42.452003745502715,42.98102813868687,22,23.157894736842106,431.3095559249721,1367.8090860988123,195.99418154800986,1995.1128235717943,6.978824959473401,0.026845637583892617,0.053691275167785234,0.18791946308724833,87.46682619208632,12.533173807913686,30.38853265303478,109.7081358495658
189,1565.2873114832946,69.03489321028708,38.406368939450836,1.6966274980313991,35.13114838552583,42.452003745502715,46.02337302450087,26,27.659574468085108,294.93384459585474,1193.8560958967935,145.82866964367093,1634.6186101363191,8.186703607829338,0.0,0.08,0.18666666666666668,89.11470269762754,10.885297302372456,32.54220675607838,91.50976895837316
190,1565.9190528491113,67.81688113963772,38.38855768639105,1.673344327839285,35.15625,42.452003745502715,40.79128386785588,20,21.05263157894737,796.2628879016672,1662.0006787467332,106.05278199189502,2564.3163486402955,15.671448193351024,0.02666666666666667,0.05333333333333334,0.18666666666666668,94.00172085590727,5.998279144092738,28.839981359401953,91.38888610503396
191,1581.375221728623,69.39376297282284,38.016256155900834,1.701588019026181,35.15625,42.452003745502715,40.26583706783448,20,21.05263157894737,1467.1057241254698,1396.6402662186756,108.2242536528611,2971.9702439970065,12.905057961393046,0.027586206896551724,0.05517241379310345,0.19310344827586207,92.80837230037825,7.191627699621738,28.4531705831593,93.90292733112686
192,1599.7980680803528,73.37746163128675,37.58667290817775,1.7883169452474974,35.15624999999999,42.452003745502715,41.35470445623636,20,20.833333333333332,984.1956320931549,449.7741888479561,89.28889479055564,1523.2587157316666,5.037291478441841,0.027972027972027972,0.055944055944055944,0.1958041958041958,83.43628092877687,16.563719071223126,29.235117408159965,99.5049154519831
193,1619.184414833232,72.35697361210933,37.13414565803806,1.7576230117230638,35.15624999999999,42.452003745502715,37.58242872112283,15,15.463917525773196,354.2595474886628,107.6998152011889,60.525219751395625,522.4845824412473,1.7794204737060124,0.028169014084507043,0.14084507042253522,0.3098591549295775,64.02127675678291,35.978723243217104,26.535125873958833,98.22456562043608
194,1654.0036063239188,41.611536294936215,36.29897931696353,0.9293439751690801,34.21875,39.375,39.470857518287126,16,16.161616161616163,53.67360449769729,85.8634712125326,82.65086347913356,222.18793918936345,1.0388696209351775,0.028368794326241134,0.11347517730496454,0.3120567375886525,50.9532149710816,49.0467850289184,27.88610459784776,50.36474158924043
195,1660.0980216088767,36.10127785008051,36.159618495733476,0.7900589948511799,34.21875,37.96875,34.15224871394495,10,10.1010101010101,119.38895588413665,65.67252190931626,118.02755278236518,303.08903057581813,0.5564168735279291,0.02857142857142857,0.05714285714285714,0.2857142857142857,35.74986129947944,64.25013870052055,24.1453044630123,44.50539252397509
196,1650.9499784511104,47.04484724468426,36.37282096340701,1.0574268364787769,34.21875,39.84375,35.76357989196713,13,13.26530612244898,482.7363315130747,219.21136286565357,94.55876103967205,796.5064554184003,2.3182554472523558,0.02857142857142857,0.05714285714285714,0.2857142857142857,69.86368241094765,30.136317589052368,25.288216492976428,61.82017783301646
197,1652.5736271557005,46.876244510392986,36.3368581253928,1.0532393851367958,34.21875,39.84375,35.03272273125384,11,11.11111111111111,540.9963773425322,786.2276376801115,122.90610257742979,1450.1301176000734,6.3969780278794115,0.028368794326241134,0.05673758865248227,0.36879432624113473,86.48096565609669,13.519034343903318,24.771345894597587,61.52649632136778
198,1648.3002380842013,46.20201830007762,36.43021892259068,1.0384298559324416,34.21875,39.84375,32.06409097079457,8,8.16326530612245,553.9118404310476,993.3187932517799,229.8163418305436,1777.0469755133709,4.322228721159478,0.02857142857142857,0.05714285714285714,0.2857142857142857,81.21087889319149,18.789121106808512,22.67273615803119,61.60444939702716
199,1643.685165172758,44.9465928799031,36.53098691327158,1.011853403157196,34.21875,39.84375,32.5649831709233,10,10.1010101010101,243.4113568605196,606.5120455094607,195.11795153744296,1045.0413539074232,3.1084379511491105,0.027777777777777776,0.05555555555555555,0.2777777777777778,75.6598490255815,24.340150974418506,23.026379589886854,59.42130223162657
200,1636.8036757735208,39.87365009729438,36.67894341238661,0.9092169674254921,35.15624999999999,39.84375,31.34056155234324,11,11.224489795918368,60.9603466864852,335.33367541781,97.5878658836337,493.8818879879289,3.436223062995051,0.027972027972027972,0.055944055944055944,0.16783216783216784,77.45830212322856,22.541697876771433,22.160549983285005,51.87782537738941
201,1643.3993839975255,39.632658968276665,36.53140629632599,0.9012253007689621,34.6875,39.84375,32.201516118256144,11,11.11111111111111,9.330113713504845,204.12225826910696,83.9578267058165,297.4101986884283,2.431247523644697,0.027972027972027972,0.11188811188811189,0.16783216783216784,70.85608097028825,29.14391902971175,22.752031886750107,49.88502974252119
202,1654.6794800794357,28.865528731837884,36.271875,0.635082733291499,34.6875,37.96875,32.46467276183716,11,11.0,69.81790753453973,114.41052508804549,92.92590676459332,277.15433938717854,1.231201599978772,0.028169014084507043,0.056338028169014086,0.28169014084507044,55.181100622663855,44.81889937733615,22.95599025889726,33.98670240432246
203,1656.3873498569785,30.576312932308873,36.23579545454545,0.6710802165350985,34.6875,37.96875,35.23084854399128,12,12.121212121212121,63.06074279844141,93.34306333655385,64.57108507086092,220.97489120585618,1.4455861045871894,0.028368794326241134,0.05673758865248227,0.2553191489361702,59.11000646739453,40.88999353260548,24.911471998280735,35.496131423606776
204,1670.2258953657577,35.01008571579052,35.9390625,0.7530844776442757,33.75,37.96875,36.160945662301756,12,12.0,8.876086297044441,70.17424267947482,33.31340517845214,112.3637341549714,2.106486632140058,0.0,0.05673758865248227,0.1702127659574468,67.80929331374267,32.19070668625734,25.567582838518547,42.24158227860609
205,1683.9386332017248,37.22661627285402,35.648205445544555,0.789831011343723,33.75,37.50000000000001,34.73249182469376,9,8.910891089108912,187.69186246287757,84.15324548139988,25.986341537225666,297.8314494815031,3.23836448315934,0.02877697841726619,0.05755395683453238,0.17266187050359713,76.40599330299726,23.594006697002737,24.54244291095371,45.876872113093484
206,1695.757198732653,37.493828097965334,35.39981617647059,0.7869198453763553,33.75,37.50000000000001,35.029270616822494,8,7.8431372549019605,239.8466035906345,81.78698982128131,37.60348764663645,359.23708105855223,2.174984155454979,0.028985507246376812,0.057971014492753624,0.34782608695652173,68.50377982888867,31.49622017111134,24.764940740862436,46.94040491619511
207,1706.4809184380936,39.58009743960833,35.17922794117647,0.8260434029501884,33.75,37.50000000000001,33.538221185155365,7,6.862745098039215,142.73006450676036,34.77434813528056,48.31058840298463,225.81500104502553,0.7198080024447022,0.029197080291970802,0.058394160583941604,0.32116788321167883,41.85397447979641,58.14602552020358,23.706970943330763,50.536372516192074
208,1708.8300355765666,37.298888651092525,35.12867647058823,0.7761511813803628,33.75,37.50000000000001,34.30062401583313,8,7.8431372549019605,204.30017240680306,96.13372051103968,27.960141201725328,328.39403411956806,3.4382415960441426,0.029197080291970802,0.08759124087591241,0.32116788321167883,77.4685541929193,22.53144580708071,24.249849725093192,46.646446632556874
209,1707.9321020131185,37.33119952433086,35.14714805825243,0.7755634190928974,33.75,37.03125,31.832493117390552,7,6.796116504854369,268.6844941799623,279.5368180250709,21.16507376079486,569.386385965828,13.207457776162874,0.028985507246376812,0.057971014492753624,0.17391304347826086,92.96144309731619,7.038556902683812,22.504371520029633,47.579227688015244
210,1698.8159559273417,41.65931869431008,35.34007352941177,0.8711761478729995,33.75,37.03125000000001,32.336731122484096,9,8.823529411764707,342.47549213944285,321.31127074820324,40.39523251060539,704.1819953982515,7.954187927098723,0.028985507246376812,0.057971014492753624,0.17391304347826086,88.83204140742204,11.167958592577957,22.8611371683852,54.0267002606544
211,1689.9792279756666,45.7054269423622,35.52914093233316,0.9524566977956234,32.73218912710534,37.03125000000001,35.03190119973277,12,11.881188118811881,242.72553551500718,147.33854202545987,58.990892428664154,449.0549699691312,2.4976489752826128,0.02877697841726619,0.08633093525179857,0.2302158273381295,71.40936648969472,28.59063351030528,24.75516739623974,58.28686435106898
212,1693.2980011148345,63.101629730409925,35.480512750504104,1.2550194130778058,31.334036803091834,37.03125000000001,36.919166079963546,15,14.851485148514852,395.13612053259766,200.3920342294224,139.05494520389612,734.5830999659161,1.4410996598185541,0.02877697841726619,0.11510791366906475,0.20143884892086333,59.0348556242751,40.9651443757249,26.093691480401162,85.42994803830184
213,1675.1105180572586,63.0022311319381,35.86570692651578,1.2563631436068796,31.334036803091834,37.96875,38.24310646212006,17,17.0,256.7891548003617,1743.3008892353473,902.4416239263869,2902.531667962096,1.9317602856686829,0.028368794326241134,0.05673758865248227,0.19858156028368795,65.8907992959623,34.1092007040377,27.041959913004174,85.34724945480828
214,1672.113902325666,63.84459768707963,35.931331926515774,1.2751647021595152,31.334036803091834,37.96875,39.4912596380801,17,17.0,502.5102362685065,3799.6161209443676,1672.119281892085,5974.245639104958,2.272335569652014,0.028368794326241134,0.05673758865248227,0.1702127659574468,69.44078690235483,30.55921309764517,27.922919629279892,86.17717436188354
215,1671.283677045607,64.3942960462545,35.95008192651578,1.2876922459925053,31.334036803091834,37.96875,42.13854510562127,24,24.0,404.64367029686485,2564.2463782621767,958.1262807390278,3927.0163292980696,2.67631358184258,0.028368794326241134,0.05673758865248227,0.19858156028368795,72.7988383542952,27.201161645704794,29.792562772207624,86.33512954121393
216,1666.9653348303432,65.96237907304226,36.045853377487965,1.3239728873894665,31.334036803091834,37.96875,42.58991318037673,23,23.0,171.72858152273463,517.0370460164532,184.90076596158974,873.6663935007776,2.7962947764308326,0.027972027972027972,0.055944055944055944,0.1958041958041958,73.65852603943019,26.34147396056982,30.112324853584294,88.52822112557268
217,1655.3965742201433,67.79605849156133,36.30150257711064,1.3804748465704064,31.334036803091834,38.4375,40.60112186915838,21,21.21212121212121,15.243599118256187,53.18090011356296,109.48447674097227,177.90897597279144,0.4857391814492833,0.027972027972027972,0.055944055944055944,0.2517482517482518,32.6934355312258,67.30656446877421,28.61815780517509,88.58340424727486
218,1630.0293165590915,38.77372130521598,36.83000207730606,0.8768834713729725,34.6875,38.90625000000001,40.302234635019055,22,22.68041237113402,212.62762502018126,58.558365050508634,100.30993283357536,371.4959229042653,0.5837743421447911,0.027777777777777776,0.05555555555555555,0.2777777777777778,36.859691851948284,63.140308148051716,28.49796483160153,47.16207761671027
219,1634.6479638565731,39.81924408714469,36.72703188953136,0.8987130579685129,34.6875,38.90625000000001,40.12978889881518,21,21.649484536082475,302.9124155053362,129.2842782148765,74.2584008868786,506.45509460709127,1.7410054171759162,0.027972027972027972,0.055944055944055944,0.3076923076923077,63.517036714567695,36.482963285432305,28.374262974913428,48.711350912579434
220,1636.6563134720855,41.2974691550939,36.68353962149012,0.9290557232200215,34.6875,38.90625000000001,39.81959016079649,20,20.61855670103093,467.4679553595673,300.84137105639167,67.6693237612039,835.978650177163,4.44575701861631,0.027972027972027972,0.055944055944055944,0.3076923076923077,81.6370800867262,18.3629199132738,28.15626463573633,51.44487253881638
221,1634.3857405334365,40.52507072554541,36.733683823238586,0.9137016049771589,34.6875,38.90625000000001,36.98294582504415,14,14.583333333333334,338.1521676248203,304.77777015325415,65.71468759934606,708.6446253774204,4.6378942255869,0.028368794326241134,0.05673758865248227,0.3120567375886525,82.26288113988338,17.737118860116624,26.146558435212164,51.05842971965454
222,1638.2739012025763,41.58848705999083,36.647683009625624,0.936823994036927,34.6875,38.90625000000001,38.98307718260138,19,19.587628865979383,226.8652186895096,178.86798337054364,96.81288984565377,502.54609190570704,1.847563724786112,0.027972027972027972,0.055944055944055944,0.2517482517482518,64.88226088513215,35.11773911486784,27.564569507091157,52.07959130260051
223,1644.4155724338332,38.9372475103492,36.507769779037154,0.8722269771783077,34.6875,38.90625000000001,41.62843104322812,21,21.649484536082475,65.88461532846259,102.66408174626548,133.5578428541817,302.1065399289098,0.7686862826794381,0.028169014084507043,0.056338028169014086,0.2535211267605634,43.46086076468752,56.53913923531248,29.432341400576053,46.4120867164044
224,1654.1427017407832,32.59321362793686,36.286697770377046,0.7174327788273264,34.6875,38.38299207597709,41.09992564023138,19,19.19191919191919,17.29414562704807,67.13642465072927,139.23895960051456,223.66952987829188,0.48216695128538695,0.028368794326241134,0.14184397163120566,0.1702127659574468,32.53121727395386,67.46878272604614,29.0616292953729,36.045400936165095
225,1648.4734790269176,35.575482476938774,36.414321151189675,0.7885171338891085,34.6875,38.4375,42.06858435146872,19,19.19191919191919,0.7835883230146463,102.51730942393097,148.44233916842808,251.7432369153737,0.6906204119271598,0.027972027972027972,0.11188811188811189,0.16783216783216784,40.85011674145782,59.14988325854219,29.740775108999163,40.437100911808564
226,1644.6836117762666,34.88571769659297,36.497670597066545,0.7776344386790879,35.15625,38.4375,42.66764906147888,21,21.428571428571427,8.847273416929395,173.95956652051447,149.19824795779095,332.00508789523485,1.1659625290621953,0.028169014084507043,0.08450704225352113,0.1971830985915493,53.83114958904788,46.1688504109521,30.17058398865955,39.27293185800337
227,1641.9186949987059,35.00523748673796,36.55930482778639,0.7831302914467111,35.15625,38.4375,42.045385284982814,21,21.21212121212121,26.37332933223139,192.97906098152373,139.04277263519296,358.39516294894804,1.387911484531768,0.027777777777777776,0.08333333333333333,0.19444444444444442,58.122400831114376,41.87759916888563,29.73057705261243,39.43296950374662
228,1635.2308671852022,36.01696845759487,36.70991925616425,0.8107993421812515,35.15625,38.4375,43.875366891482145,23,23.46938775510204,13.383481403380529,123.36851418120041,146.0419303153956,282.79392589997656,0.8447472168764878,0.027972027972027972,0.08391608391608392,0.1958041958041958,45.79203097033573,54.20796902966426,31.02067504433355,40.01242094239544
229,1626.1243415315598,42.062287377783306,36.92256398180552,0.9678011739711202,35.15625,40.28675129656873,43.233531657177764,23,23.46938775510204,22.191240094682662,106.50140002339269,181.79504156236612,310.4876816804415,0.5858322598246256,0.0273972602739726,0.1095890410958904,0.1917808219178082,36.94162835919429,63.0583716408057,30.56353728675862,49.23390323428266
230,1618.292930063083,40.74205943650651,37.09987741769296,0.9448229677553731,35.15625,40.28675129656873,47.21398807780886,28,28.8659793814433,101.79526281460531,142.9356841460583,183.5139530498555,428.24490001051913,0.7788818330736232,0.027586206896551724,0.05517241379310345,0.19310344827586207,43.7849113185804,56.21508868141961,33.38498052959591,47.26918508310522
231,1627.107795523983,44.505135761256334,36.90324975959394,1.0245030563366342,35.15625,40.28675129656873,43.670335700087044,25,25.510204081632654,315.0422791658567,157.8834440020956,190.1469433975078,663.0726665654602,0.8303233340545242,0.027586206896551724,0.05517241379310345,0.19310344827586207,45.364844484345596,54.63515551565441,30.879178849715448,54.78905371167337
232,1625.882491391665,44.045942041699796,36.930514015500314,1.0149730558560623,35.15625,40.28675129656873,43.86270648886904,27,27.551020408163264,377.61484127442924,247.6240073620663,191.52393950854758,816.762788145043,1.2929141286330683,0.027586206896551724,0.05517241379310345,0.27586206896551724,56.38737676599539,43.612623234004616,31.01417529344217,54.303278145935295
233,1622.524693034345,44.32293026668711,37.00732587973542,1.02269879928497,35.15625,40.28675129656873,43.48716806837996,25,25.77319587628866,410.81673916844295,414.8844953945167,165.41876394462705,991.1199985075866,2.5080860568719814,0.027777777777777776,0.05555555555555555,0.25,71.49442790774467,28.505572092255335,30.746971491622915,54.63212305203851
234,1613.404789776289,50.922710395104694,37.22592153759231,1.1885876616667816,35.15625,40.78125,40.58831152234867,21,21.649484536082475,0.0,0.0,129.07405386425123,129.07405386425123,0.0,0.0,,0.18181818181818182,0.0,100.0,28.698964699495242,65.59891029393516
235,1614.7099253773188,48.42813555585735,37.19208395885626,1.12468058402035,35.15625,40.78125,38.830498824372256,19,19.587628865979383,0.0,0.0,13.488894188220852,13.488894188220852,0.0,0.0,0.0851063829787234,0.3404255319148936,0.0,100.0,27.455944314119865,62.19518807407767
236,1612.652305721755,47.90796841612238,37.23881017313414,1.1123763333757828,35.15625,40.78125,34.995433359197186,16,16.49484536082474,0.0,40.3832610841626,17.847848261369712,58.23110934553231,2.26264031903325,0.0,0.05555555555555555,0.16666666666666666,69.34997725105325,30.650022748946757,24.743993952154717,62.56768224649091
237,1604.9047446512686,41.89406601100851,37.41105425555266,0.983600277878456,35.464793578835426,40.78125,38.39109212717955,20,20.833333333333332,0.0,61.62315899513804,156.59928781440325,218.22244680954128,0.39350855201954654,0.0,0.12371134020618557,0.16494845360824742,28.23868941810605,71.76131058189395,27.14519202453437,52.15201169598505
238,1607.5769955338164,43.09143125742535,37.35030350947383,1.0099299895396148,35.15625,40.78125,36.216016395072785,16,16.666666666666668,77.64072433400112,80.28312354315523,252.99367703909888,410.9175249162552,0.31733252974044834,0.03333333333333333,0.1,0.23333333333333334,24.089022519088008,75.910977480912,25.607096564314755,54.766508599808716
239,1631.4316026931804,69.80869591306168,36.84311874761886,1.5356986827169108,32.8125,40.78125,34.45093725943405,15,15.306122448979592,279.3965850263925,111.82722529916836,241.26814790895125,632.4919582345121,0.46349767372263845,0.027586206896551724,0.05517241379310345,0.2206896551724138,31.670543933538248,68.32945606646176,24.275436186249028,93.97402282461563
240,1659.196338287174,67.36960632940557,36.22097915866831,1.4518981818578796,32.8125,38.90625000000001,32.96643831760901,13,13.131313131313131,591.128198883549,278.975534572157,128.58726353841223,998.6909969941182,2.169542510629912,0.028169014084507043,0.08450704225352113,0.22535211267605634,68.44970538662184,31.550294613378156,23.298083223572487,92.56242167931325
241,1675.1161203848794,60.93257078585833,35.86565870365921,1.3001475254719785,32.8125,38.90625,31.33221945133059,10,10.0,933.2859644805084,951.2282240960944,81.29314714638105,1965.807335722984,11.7012104646811,0.028368794326241134,0.05673758865248227,0.1702127659574468,92.1267346700478,7.8732653299522175,22.143392787182645,82.91948089506346
242,1681.68835737399,54.74502586121773,35.715895004431935,1.1517546016032827,32.8125,37.96875000000001,33.8448763594628,12,12.0,1067.458570208018,995.7813293379229,127.11319883612337,2190.353098382064,7.8338153587158335,0.028985507246376812,0.057971014492753624,0.17391304347826086,88.67986301056932,11.320136989430686,23.925686596326088,73.3783643487192
243,1689.1645901207999,50.17741963259689,35.55162599065873,1.0479955541362462,32.8125,37.83732286222758,33.92920079535834,12,11.881188118811881,549.3201651006221,386.61000191426933,118.5186249596245,1054.448791974516,3.262018961542753,0.02877697841726619,0.05755395683453238,0.17266187050359713,76.53694155227261,23.463058447727388,23.99111832568337,66.62552474872244
244,1691.2458832406535,48.77814670165259,35.5061337317962,1.0176698340502897,32.8125,37.83732286222758,33.02277958663187,11,10.784313725490197,402.85609016763095,280.97400125910906,99.01476613024575,782.8448575569857,2.8376979741537838,0.02857142857142857,0.05714285714285714,0.3142857142857143,73.94271235686543,26.057287643134583,23.348560500829095,65.07703239092864
245,1687.9093414241288,46.969997787950916,35.574354884316335,0.9861004026927909,33.28124999999999,37.83732286222758,36.93697982856263,14,13.861386138613861,274.94022756271164,380.4067570052688,95.09306782841725,750.4400523963976,4.0003626520038456,0.02877697841726619,0.08633093525179857,0.3165467625899281,80.00145050280983,19.998549497190165,26.11354820627883,60.740785720825585
246,1683.338774005891,46.145383683087054,35.67001270084924,0.9696779446640876,33.28124999999999,37.83732286222758,37.49273971153028,14,14.0,121.19439796514531,535.030345097952,197.5888697909585,853.8136128540558,2.7077959687911255,0.02877697841726619,0.08633093525179857,0.3165467625899281,73.02979968646883,26.97020031353117,26.509200222478302,59.52938439106818
247,1694.9647367536593,56.928016633426054,35.438196929367756,1.1692309759721446,32.30868088343792,37.83732286222758,37.77475708725564,15,15.0,185.25034257655082,943.1912439291864,463.44881179578,1591.890398301517,2.035157324655751,0.028985507246376812,0.08695652173913043,0.37681159420289856,67.05277871836775,32.94722128163226,26.709095514874367,75.93339274354508
248,1693.2778680573492,57.18689422024513,35.473835347272754,1.1737630589100811,32.30868088343792,37.5,34.15023865732211,11,10.891089108910892,344.6125358632647,1486.1994188702938,936.0831627999587,2766.8951175335174,1.5876788280486305,0.02857142857142857,0.08571428571428572,0.37142857142857144,61.35532782659507,38.644672173404935,24.147578394125713,77.11977586991834
249,1688.0919756724456,59.240127160009045,35.585763954612105,1.2171732551949561,32.30868088343792,37.5,31.54863886171467,8,8.0,586.0436239899101,1973.9133563508049,973.6640764510078,3533.6210567917224,2.0273042870655065,0.028368794326241134,0.0851063829787234,0.19858156028368795,66.96731133792494,33.03268866207507,22.30332924818678,81.03160637392894
250,1688.7189955866008,58.843193543171054,35.57196229874529,1.2084928663728225,32.30868088343792,37.5,31.487314153431466,9,9.0,580.5772494913609,1494.924449439317,523.8972301109794,2599.398929041657,2.853468893360327,0.028368794326241134,0.05673758865248227,0.19858156028368795,74.04935584862154,25.950644151378466,22.264616549596887,80.46268877395883
251,1682.162913239976,52.39322612160077,35.70190526844631,1.0780586938384493,32.30868088343792,37.5,30.1306925440826,8,8.0,547.4247892321832,469.8060450249059,124.49496499586355,1141.7257992529526,3.7736951453459633,0.028169014084507043,0.056338028169014086,0.28169014084507044,79.0518671688758,20.948132831124205,21.3050132770787,71.31257409714422
252,1680.933863133256,51.18261935246747,35.726469554956466,1.052980750983278,32.30868088343792,37.5,32.46612850206953,11,10.891089108910892,298.00998932596593,90.21890736155981,46.98208402640667,435.21098071393243,1.9202832149985414,0.028169014084507043,0.056338028169014086,0.16901408450704225,65.75674595998048,34.243254040019515,22.953079714112437,68.71094506229487
253,1667.313944442493,32.29410040954937,35.99955312381823,0.6986758161123006,34.6875,37.5,33.02174985097503,10,10.0,131.43119139337284,52.460927286771884,50.31090376217242,234.20302244231715,1.0427347426467026,0.028368794326241134,0.05673758865248227,0.22695035460992907,51.046017913009415,48.95398208699058,23.347756501309206,39.31558864772138
254,1680.5838720281479,34.75994667900017,35.717080121475774,0.7352688228658364,33.75,37.5,34.88056223490045,11,10.891089108910892,9.457372700689293,21.16339519340782,59.81776010221458,90.43852799631169,0.35379785463789554,0.02857142857142857,0.05714285714285714,0.22857142857142856,26.13372841638362,73.86627158361638,24.64531910051213,41.49776945940219
255,1695.516713321969,37.788930733131494,35.40491171884463,0.784094978182909,33.75,37.03125000000001,33.34264485127773,10,9.803921568627452,82.48846574807892,70.93980804252602,68.17532732128173,221.6036011118867,1.0405495775358211,0.02857142857142857,0.05714285714285714,0.37142857142857144,50.99359451939387,49.00640548060614,23.57681027703321,48.02502526486641
256,1690.489432632355,43.33778195099896,35.516009184270615,0.9104658712135363,33.75,37.5,33.88524067575934,10,9.900990099009901,210.118792393298,440.6559378292806,37.6159457884634,688.390676011042,11.714604766482498,0.02877697841726619,0.05755395683453238,0.37410071942446044,92.13502882420582,7.864971175794168,23.948609123249287,55.99114813603981
257,1677.633166163503,53.28702847073556,35.80085677611332,1.139960936933187,33.75,38.90625,32.669888992615014,9,9.0,860.6364614537375,930.0363314195973,32.10381199136711,1822.776604864702,28.96965418529392,0.028368794326241134,0.05673758865248227,0.3971631205673759,96.66329149539969,3.3367085046002933,23.09634196002629,71.97682808646076
258,1668.6348901354054,55.58399275940927,35.99721328514656,1.1918892722316063,33.75,38.90625,32.750633146454135,10,10.1010101010101,1022.7956673931964,723.6632308244499,30.497454959889843,1776.9563531775361,23.72864331716235,0.02857142857142857,0.05714285714285714,0.3142857142857143,95.95610649895227,4.043893501047721,23.15768423725075,75.48290141826453
259,1667.1583767973732,59.64878978987415,36.03507970156035,1.278004018568903,33.75,38.90625,32.748349120231175,9,10.843373493975903,982.020403564694,256.01069861415687,36.92480532495706,1274.955907503808,6.933298533631594,0.03418803418803419,0.06837606837606838,0.17094017094017094,87.39490269071932,12.605097309280685,23.149660573644706,81.48086888849122
260,1654.8787656788124,58.32618128304998,36.3005474668043,1.2525279420766828,33.75,38.90625,30.606200739878794,7,10.76923076923077,0.0,581.0457600165322,41.60367780521645,622.6494378217486,13.96621141854142,0.0,0.043010752688172046,0.3010752688172043,93.31828228244115,6.681717717558866,21.58904599601199,78.74881006246825
261,1625.8175122533594,31.098409822512114,36.91804025602459,0.70755801771487,35.625,38.90625,34.48649746086306,7,14.583333333333334,0.0,104.13506452982786,35.18164799516919,139.31671252499706,2.959925713091288,0.0,0.057971014492753624,0.2898550724637681,74.74700101837624,25.252998981623747,24.385636213948928,37.02249565954268
262,1620.2188269656008,31.318642537515778,37.0458984375,0.7174744275151449,35.625,38.90625,36.19462787213672,6,18.75,0.0,0.0,36.511251664514624,36.511251664514624,0.0,0.0,0.08888888888888889,0.17777777777777778,0.0,100.0,25.593466810911497,36.621561729140275
263,1633.7981057279303,31.858960631819784,36.73828125,0.7200120543424522,35.625,37.96875000000001,38.41876683276182,3,18.75,0.0,0.0,0.0,0.0,,0.0,,0.2,,,27.014659246988078,35.04119362924427
