,ECG_Mean RR (ms),ECG_STD RR/SDNN (ms),ECG_Mean HR (beats/min),ECG_STD HR (beats/min),ECG_Min HR (beats/min),ECG_Max HR (beats/min),ECG_RMSSD (ms),ECG_NNxx,ECG_pNNxx (%),ECG_Power VLF (ms2),ECG_Power LF (ms2),ECG_Power HF (ms2),ECG_Power Total (ms2),ECG_LF/HF,ECG_Peak VLF (Hz),ECG_Peak LF (Hz),ECG_Peak HF (Hz),ECG_Fraction LF (nu),ECG_Fraction HF (nu),ECG_sd1,ECG_sd2
0,,,,,,,,,,,,,,,,,,,,,
1,1045.3043151586212,22.11284500747455,57.426100455946255,1.2551041576507942,56.62573628241801,60.48165420159578,12.745869068237699,0.0,0.0,0.0,0.0,0.0,0.0,,0.0,,0.26666666666666666,,,7.381756323784522,25.736869623157947
2,975.1041486743418,80.68703267596933,61.96844100668293,5.282629213877044,56.62573628241801,70.78125,19.534598408724943,0.0,0.0,0.0,1071.7372626798165,18.783882429682933,1090.5211451094995,57.056216503262426,0.0,0.05194805194805195,0.15584415584415584,98.27753157158664,1.7224684284133565,11.337121394828566,111.33646194349593
3,946.2688328814085,84.55548390437038,63.91272708856517,5.67012417268131,56.62573628241801,72.65625,25.025654488696976,0.0,0.0,1484.0422147197357,207.75003655695576,101.49814265085647,1793.290393927548,2.0468358447858033,0.03225806451612903,0.06451612903225806,0.16129032258064516,67.17906539955712,32.82093460044289,17.61782791280562,118.11419075813023
4,988.1866767773532,100.0638730577033,61.36110564768119,6.377642243858707,51.09375000000001,72.65625,23.906467708858912,0.0,0.0,4418.223023850767,893.14952323606,104.99472057351271,5416.36726766034,8.506613650261736,0.024844720496894408,0.049689440993788817,0.17391304347826086,89.48100725674837,10.518992743251621,16.764940733550294,138.5812713133445
5,998.8200624011953,97.78451351872057,60.668330298197475,6.127945486868851,51.09374999999999,72.65625,24.918796054027425,0.0,0.0,4051.2348830709784,2293.697732099287,91.95630685396587,6436.888922024231,24.94334331784188,0.020618556701030927,0.041237113402061855,0.18556701030927836,96.14544668453631,3.854553315463683,17.59372669519331,138.33822044592742
6,1000.9138792585064,89.57073910532576,60.446168582100256,5.624532990679888,51.09374999999999,72.65625,24.233463296522466,0.0,0.0,8411.459309784634,768.8972453031517,84.35906312283491,9264.71561821062,9.114577815824761,0.017699115044247787,0.05309734513274336,0.17699115044247787,90.1132798797054,9.886720120294592,17.132805250577903,126.31256884953672
7,1006.0544246593553,94.64248589008494,60.19047038629368,5.889132696520189,51.09374999999999,72.65625,25.303870759240308,0.0,0.0,4778.367350894541,1319.4520080951463,82.58423961418278,6180.40359860387,15.97704373448693,0.03404255319148936,0.05106382978723405,0.18723404255319148,94.10969297340849,5.890307026591525,17.830264777687898,133.26896732736438
8,1016.6253840362804,85.08523551585186,59.45275635382626,5.212830037275946,51.09374999999999,72.65625,27.088628970888127,1.0,1.694915254237288,1095.4658179811365,1016.649196360275,135.68655641783567,2247.801570759247,7.492630244293228,0.03463203463203463,0.06926406926406926,0.2077922077922078,88.22508491203928,11.774915087960736,19.126986323159432,116.76279707941612
9,1023.8918303810045,72.60629947746413,58.89473567248535,4.168153049550302,51.09374999999999,67.03125,26.13474098958813,1.0,1.694915254237288,863.9761168717195,860.2079679146595,166.1056158495941,1890.2897006359733,5.178680826141145,0.034334763948497854,0.06866952789699571,0.22317596566523606,83.81531546719263,16.184684532807363,18.43693583211533,100.99027939287646
10,994.3787523574719,70.29588866864692,60.630545625448455,4.132220457810533,51.09374999999999,67.03125,25.800329479290447,1.0,1.7543859649122806,2827.5065483057597,1131.1142603813953,217.676363533832,4176.297172220987,5.1963118182355785,0.016666666666666666,0.05,0.21666666666666667,83.86136738540131,16.138632614598684,17.91696591499601,94.84398599465648
11,976.7646232546941,62.389946569949885,61.667725884731695,3.771387629974719,53.557548860578486,67.03125,25.254431145612305,1.0,1.7543859649122806,2099.5361372878847,662.579998289099,272.8965302410354,3035.012665818019,2.427953179558114,0.01639344262295082,0.06557377049180328,0.21311475409836067,70.82807297476255,29.17192702523745,17.856772370542714,87.1527467345209
12,968.035813013985,61.65173217829472,62.21689047686055,3.7077597276236567,53.557548860578486,67.03125,26.271071570463665,2.0,3.5714285714285716,1152.794950113495,172.50508693765843,229.4774702636286,1554.777507314782,0.7517299486502136,0.016129032258064516,0.06451612903225806,0.1935483870967742,42.91357519059688,57.08642480940312,18.54311942096196,85.41104887426148
13,943.4213951042145,34.25562038046046,63.67911336128447,2.228560073909213,56.41178996821165,67.06308006579086,25.399021299968364,2.0,3.5714285714285716,206.53643422917415,191.35870416948774,194.9672549147559,592.8623933134178,0.9814915035509635,0.015873015873015872,0.09523809523809523,0.1746031746031746,49.53296553591403,50.46703446408597,17.865811649972287,42.350354333034296
14,933.9222446301477,27.006199198175683,64.298034092294,1.8290969915295678,59.821975116322335,67.5,22.74608799996196,1.0,1.8181818181818181,326.38970717164756,361.71506093274894,164.08266955929645,852.1874376636929,2.2044684054950228,0.01606425702811245,0.09638554216867469,0.24096385542168672,68.79357592400662,31.206424075993382,16.06767509756331,34.554915429130375
15,933.0480272384895,26.458267905832685,64.35639666404589,1.800752129072277,59.821975116322335,67.51766711549269,20.787052168104044,1.0,1.7857142857142858,299.0436780719537,319.8901493023084,111.46933042434904,730.4031577986111,2.8697593148225504,0.01593625498007968,0.0796812749003984,0.23904382470119523,74.15859957569853,25.841400424301465,14.697509627907786,34.68513620472215
16,944.4859589207902,34.936139348059946,63.612378105086,2.3204913686447006,58.59374999999999,67.51766711549269,20.92748528276651,1.0,1.7857142857142858,466.5217354078882,181.52729827512917,120.67739518417967,768.726428867197,1.50423613302292,0.016129032258064516,0.08064516129032258,0.24193548387096775,60.06766347577306,39.932336524226955,14.770316722260128,47.12316112547889
17,946.9543148386164,33.92373556022777,63.44162189082278,2.25178164035849,58.59374999999999,67.51766711549269,18.903981513773473,1.0,1.7543859649122806,756.0257221431062,147.09361600076704,117.18503581786176,1020.304373961735,1.2552252510242994,0.016194331983805668,0.048582995951417005,0.24291497975708504,55.658531246676546,44.34146875332344,13.36065880027373,45.79858393105184
18,955.292999540638,45.74216870350661,62.94774612275134,2.924037848548338,56.12053434370881,67.51766711549269,21.08700774412041,2.0,3.508771929824561,790.1549520244405,252.8642105780414,64.02826286855496,1107.0474254710368,3.9492592684757346,0.016129032258064516,0.04838709677419355,0.24193548387096775,79.79495626003083,20.205043739969163,14.888737077110937,63.020726122967936
19,953.1075541338876,44.93895851105067,63.08686786774697,2.8650934088955053,56.12053434370881,67.51766711549269,20.867837101087353,2.0,3.3333333333333335,487.2402907419149,703.9059135466471,57.030691891613614,1248.1768961801754,12.342580638586934,0.0163265306122449,0.0489795918367347,0.163265306122449,92.50519800414033,7.494801995859674,14.754846484655825,62.07337154877311
20,958.1554779537295,41.79801834007044,62.735343604581914,2.640645153559187,56.12053434370881,67.51766711549269,18.968986125290787,2.0,3.3333333333333335,546.0210588632517,1279.4962754074734,123.4311716167593,1948.9485058874843,10.366070893179023,0.03375527426160337,0.050632911392405056,0.16877637130801687,91.20188489586039,8.798115104139614,13.408718654242744,57.86453520288707
21,962.2241435219973,39.63328727659935,62.45751678732136,2.4788826429158157,56.12053434370881,67.03125,19.164473449623312,2.0,3.3333333333333335,768.6040320871117,1019.9792864430905,158.924307373067,1947.5076259032692,6.4180193911352985,0.03333333333333333,0.05,0.16666666666666666,86.51931267266541,13.480687327334609,13.543390895037689,54.69409433709029
22,956.9684366690744,37.643933384076625,62.79033974437526,2.3506408821771667,56.12053434370881,67.03125,20.306887872089163,3.0,5.0,457.1034782319986,336.24967864242217,71.82480020336956,865.1779570777904,4.681526125938983,0.0163265306122449,0.0489795918367347,0.163265306122449,82.39909528120438,17.60090471879561,14.353193897748314,51.59627991652308
23,959.3773796662452,42.18811557569698,62.65592678923988,2.6264946069877713,56.12053434370881,67.03125,20.246143853072525,3.0,4.838709677419355,141.30703263207948,205.1257046474654,60.670020197229135,407.102757476774,3.381006038577744,0.01646090534979424,0.06584362139917696,0.16460905349794241,77.1741926125114,22.82580738748859,14.293874135760252,56.48861531364291
24,976.2435070424639,64.20346721139754,61.70793073323759,3.773089731017899,53.4375,66.09375,15.698356115089721,1.0,1.5625,417.6832018832936,308.4227850296036,136.74492761627812,862.8509145291753,2.255460516203373,0.01694915254237288,0.05084745762711865,0.15254237288135594,69.28237971178856,30.717620288211428,10.902533834679579,88.84579181100567
25,1012.6404410292442,80.24775992268555,59.613256760024505,4.574484007804501,52.93210672280132,66.09375,14.869807310047934,1.0,1.5873015873015872,3030.7942905575665,559.8986093389876,62.868231164476235,3653.56113106103,8.905906830338166,0.017467248908296942,0.05240174672489083,0.15720524017467247,89.9050130681891,10.094986931810888,10.278391007258096,112.51964396786677
26,1033.6055438478984,79.02765792776798,58.393977716876606,4.513472579844407,52.93210672280132,66.09375,16.418408981183546,1.0,1.5384615384615385,4369.696841662285,635.6729075486601,15.73712071237311,5021.106869923318,40.39321545324809,0.017857142857142856,0.05357142857142857,0.1607142857142857,97.58414515748491,2.4158548425150936,11.45741781200553,111.0164525936284
27,1054.17403678848,74.98732486886256,57.21741489527293,4.235701759648982,51.09375,66.09375,19.021521293694757,1.0,1.5384615384615385,2965.4175080956793,410.28104962085166,10.565529524567273,3386.2640872410984,38.83203853312362,0.018018018018018018,0.07207207207207207,0.16216216216216217,97.48945814267472,2.5105418573252725,13.44614511001084,105.86818124840136
28,1064.8998294172802,64.89267750575048,56.56439439543729,3.635964917184475,51.09375,66.09375,20.398162751978425,1.0,1.492537313432836,1292.0931312129023,684.9672778849658,40.37027328025458,2017.4306823781228,16.967120166114622,0.018433179723502304,0.07373271889400922,0.16589861751152074,94.43427777654672,5.565722223453294,14.325000835674299,89.71199168928129
29,1087.1233123335642,42.53719341186196,55.276914608417776,2.1839987427078453,51.09375,60.937500000000014,21.220454120197957,2.0,3.125,598.2217096130166,1183.3847039585257,91.6830405676161,1873.2894541391584,12.90734574935679,0.018518518518518517,0.12962962962962962,0.16666666666666666,92.8095553384351,7.1904446615649125,14.989622137698083,58.13752566249482
30,1082.265347124529,44.05078998974763,55.531036173501676,2.256376691080361,51.09375,60.937500000000014,22.231743261110328,2.0,3.125,873.887675810507,841.5219507102877,122.79560874473725,1838.2052352655319,6.853029675186601,0.01834862385321101,0.12844036697247707,0.1834862385321101,87.26606110811318,12.733938891886822,15.709579892940557,60.55832556355617
31,1063.950440947762,44.318753539874415,56.48958629985879,2.3069782941992782,51.09375,60.937500000000014,25.071225159453466,3.0,4.761904761904762,457.69118253780096,759.9751470401309,101.43121281776328,1319.097542395695,7.492517598163227,0.03619909502262444,0.1085972850678733,0.1809954751131222,88.2249287276569,11.775071272343096,17.69541274295233,60.00499488768669
32,1060.1542082725628,41.64980745969168,56.68050192335206,2.1657209586549735,51.09375,60.937500000000014,23.60768086169405,3.0,4.761904761904762,598.7833387586727,934.3852697814993,81.83476259698243,1615.0033711371545,11.417950515517886,0.03587443946188341,0.08968609865470852,0.16143497757847533,91.9471413680513,8.052858631948698,16.664923216775538,55.77894921136313
33,1049.7525990357337,40.68695727283535,57.24266525342871,2.2327473932538178,52.01456799936084,64.27892508455102,22.316807659454746,3.0,4.838709677419355,463.17258892934126,543.1271676773473,148.84182020496374,1155.1415768116524,3.6490226129284764,0.036036036036036036,0.09009009009009009,0.16216216216216217,78.4901024740319,21.509897525968103,15.737170521519145,53.73954311227497
34,1036.8233759731615,52.672712561134844,58.021389007938794,3.0055370609424226,52.01456799936084,65.22235724103159,19.905691355801945,1.0,1.639344262295082,237.415250360318,262.50643198352316,142.32488045551636,642.2465627993575,1.8444170207159916,0.03587443946188341,0.053811659192825115,0.16143497757847533,64.84341104989304,35.156588950106965,14.013059233187189,72.2015282565227
35,1018.5303770200474,56.85264056266716,59.09719311079306,3.387922245794557,52.33027272014515,65.95596497358315,21.08523437492487,1.0,1.639344262295082,1303.6989435352261,447.65860130470963,56.12950789949429,1807.48705273943,7.975459220242743,0.017777777777777778,0.05333333333333333,0.17777777777777778,88.85850879089668,11.141491209103336,14.872811045155904,77.76261523583089
36,1011.0428724803005,50.91475216626635,59.50031558585656,3.0938497581417046,55.55225119000126,65.95596497358315,22.649197516032267,1.0,1.639344262295082,1853.2033053302691,860.467719535624,55.98899639555399,2769.660021261447,15.368514796310095,0.01762114537444934,0.07048458149779736,0.15859030837004406,93.8907102297062,6.109289770293802,16.015111039802814,70.60829203741676
37,1025.726862037596,61.22895374182819,58.71046285152641,3.6134314054867085,53.17902728959228,65.95596497358315,21.415912053453766,0.0,0.0,2806.0860509403738,1093.605625506562,105.57233533485493,4005.264011781791,10.358827642088787,0.01809954751131222,0.07239819004524888,0.16289592760180996,91.19627454954401,8.803725450455984,15.131329774196907,85.18677090659337
38,1045.2589228446855,82.9336489139679,57.76424124953421,4.581246248414251,48.65007973658389,65.95596497358315,24.123610062916875,1.0,1.5873015873015872,2420.1481909550866,1171.993483605967,151.5732633367799,3743.7149378978334,7.732191402397403,0.01834862385321101,0.07339449541284404,0.29357798165137616,88.5481209250011,11.451879074998885,17.029856816730074,116.14244813227052
39,1067.521674149463,90.3834797732345,56.61819030596922,4.898387536350661,48.65007973658389,65.95596497358315,27.839046653188642,3.0,4.615384615384615,2095.974550873272,825.2050699613807,143.81325790759934,3064.9928787422523,5.7380319587195405,0.019138755980861243,0.07655502392344497,0.3062200956937799,85.15887122343013,14.841128776569866,19.59438664407111,126.20323609853025
40,1107.9858491411578,89.5418438224545,54.52727061142346,4.661300429864539,47.60679840141181,65.95596497358315,27.26443595418728,3.0,4.411764705882353,2193.813655034731,465.9033395631527,301.64408500039383,2961.3610795982772,1.5445465790006936,0.018867924528301886,0.07547169811320754,0.3018867924528302,60.700267456187625,39.299732543812375,18.928454270652004,122.4448836708794
41,1139.9715794621357,68.90092260156084,52.82925186293827,3.256457166052958,47.34375,60.733864270266864,26.20743166130864,3.0,4.3478260869565215,756.3471748570179,694.3386287010967,475.4864870157027,1926.1722905738172,1.4602699501703535,0.01932367149758454,0.05797101449275362,0.30917874396135264,59.354053813047706,40.645946186952294,18.516660653738434,95.38553326659616
42,1155.6135655257183,52.034286546106486,52.02521500005787,2.3286782348865107,47.34375,56.71875,24.44177492453575,3.0,4.285714285714286,706.6382191721378,976.8943516288043,334.95055895292245,2018.4831297538647,2.9165329793228008,0.039603960396039604,0.0594059405940594,0.15841584158415842,74.46721359734579,25.532786402654214,17.23941463207151,71.05539963021914
43,1170.7216421357164,47.249281931888845,51.33503595690243,2.0982063068686587,47.34375,56.25,23.494147828159893,3.0,4.285714285714286,122.23737236208488,2093.442988833803,146.05391807975397,2361.734279275642,14.333357272145626,0.02030456852791878,0.04060913705583756,0.16243654822335024,93.4782710514638,6.521728948536187,16.570578975516575,64.4533766800519
44,1174.0852807666856,46.804418713757926,51.1864519540792,2.080119674225848,47.34375,56.25,26.648042025107685,6.0,8.571428571428571,172.30696416310602,1694.7905741160782,115.03556557406618,1982.1331038532503,14.732753002591007,0.02030456852791878,0.04060913705583756,0.16243654822335024,93.6438333466793,6.356166653320695,18.838435012844318,63.55183508411897
45,1174.4677941953148,43.48201669105775,51.15804487679631,1.921961405422902,47.34375,56.25,24.453411409704763,5.0,7.042253521126761,174.18281088314316,804.6455499525031,230.85959769874526,1209.6879585343916,3.485432522508794,0.020100502512562814,0.04020100502512563,0.24120603015075376,77.7056059815458,22.294394018454202,17.284133235053726,58.55244376533757
46,1176.126792398932,51.778897336930584,51.11182458621421,2.2065686758907286,44.71716687239311,56.25,31.853326350511683,8.0,11.764705882352942,38.61436987026869,310.9156110507116,421.4931946205696,771.0231755415499,0.7376527427224524,0.02,0.06,0.24,42.45110225917414,57.54889774082586,22.516491604850266,69.1967663412191
47,1173.0874845534488,47.761610217491445,51.22962214054898,2.032800817603715,44.71716687239311,56.25,33.10433548076689,8.0,11.764705882352942,17.02537373414298,954.165260905459,502.6444359842551,1473.835070623857,1.8982907053115126,0.02030456852791878,0.06091370558375634,0.2639593908629441,65.496904842314,34.503095157686005,23.404663468926955,62.63672634414618
48,1184.8617027718137,47.41340959471265,50.71667622880592,1.9489856810395196,44.71716687239311,53.90625000000001,35.986618235039394,10.0,14.705882352941176,68.29594699689274,3158.1455666528777,589.8683132518462,3816.309826901617,5.353984093911648,0.02030456852791878,0.06091370558375634,0.16243654822335024,84.26184288125312,15.738157118746873,25.409391256404202,60.50135135188981
49,1191.972589120417,52.06024135209127,50.42987096219154,2.1357507679394074,44.71716687239311,53.90625000000001,36.385539969999314,11.0,15.714285714285714,7.775705551634464,3503.9167883318837,559.9049893631616,4071.59748324668,6.258056018249193,0.020202020202020204,0.06060606060606061,0.16161616161616163,86.22220609091934,13.777793909080666,25.72437724984462,69.44054012140337
50,1199.260926785955,52.31223328041754,50.124142887090116,2.1424712003629973,44.71716687239311,53.90625000000001,33.47363229126524,7.0,9.859154929577464,71.91210809559513,1851.8214779660605,532.1671896423416,2455.900775703997,3.4797738643200287,0.020202020202020204,0.04040404040404041,0.16161616161616163,77.67744465932351,22.322555340676487,23.661728100848478,70.16640491892277
51,1218.9217085176363,55.89802011164606,49.32694909121427,2.2515312857669705,44.71716687239311,53.90625000000001,33.26673006310298,7.0,10.0,169.5287277835496,1131.73537864092,500.61417088722914,1801.8782773116989,2.260693852583451,0.02072538860103627,0.06217616580310881,0.22797927461139897,69.33168076458024,30.668319235419755,23.508063943278962,75.73594038428035
52,1228.7116535946095,52.84046046793014,48.92223552361345,2.10899258058024,44.99999999999999,53.4375,28.76099618656416,7.0,9.58904109589041,110.8135468008218,703.0819636047283,264.39328930573333,1078.2887997112834,2.6592277188688924,0.02127659574468085,0.0425531914893617,0.23404255319148937,72.6718292266022,27.32817077339781,20.33188904422874,72.1256191162039
53,1242.9558204467878,45.122345961211515,48.33623963622536,1.7705814746479667,44.99999999999999,52.96875,29.10004276228945,6.0,8.108108108108109,319.30737154293064,466.3748004458295,196.22825487478494,981.9104268635451,2.376695449610086,0.0213903743315508,0.0427807486631016,0.23529411764705882,70.38524750239256,29.61475249760745,20.569569273429572,60.30947131566616
54,1247.4685268277601,38.663368128342874,48.14364077142333,1.492827983617449,44.99999999999999,51.5625,26.453190482845073,5.0,6.666666666666667,380.81480047049587,472.66096028020695,229.40361160635484,1082.8793723570577,2.0603902308707744,0.02127659574468085,0.0425531914893617,0.2127659574468085,67.32442843684449,32.67557156315551,18.700041474026595,51.1412418925322
55,1254.3194105491236,41.10517763483998,47.886483301484056,1.5810845313393773,44.99999999999999,51.5625,26.35867400859648,5.0,6.756756756756757,145.97188938101962,582.6638612042889,289.6164671744751,1018.2522177597837,2.0118464495089357,0.021621621621621623,0.08648648648648649,0.21621621621621623,66.79777615611698,33.202223843883026,18.633973468975547,54.873623762197944
56,1248.9615498929918,46.49782428280259,48.107151727023435,1.8074895325692186,44.99999999999999,52.49999999999999,26.573050675133402,6.0,8.219178082191782,19.91130443005844,1031.1724675359783,284.0159841749023,1335.099756140939,3.630684626893968,0.021505376344086023,0.08602150537634409,0.21505376344086025,78.40492107382511,21.5950789261749,18.761294217090214,62.77044006232114
57,1236.6100552810742,46.82638966472862,48.58916569010043,1.8345404050765144,45.46874999999999,52.49999999999999,25.76505803410153,5.0,6.756756756756757,148.95053370523107,1479.4885718020146,179.15152178262935,1807.5906272898749,8.258308704723863,0.021164021164021163,0.06349206349206349,0.2962962962962963,89.19889115935645,10.801108840643545,18.20512496897757,63.84509876110053
58,1217.6937838876365,50.05661453045667,49.355894066141786,2.006712725082768,45.46875,53.00402561747352,24.099196265164718,3.0,4.166666666666667,405.6212067186819,1126.6344381182544,134.08046243672993,1666.3361072736661,8.402674167758724,0.020942408376963352,0.041884816753926704,0.25130890052356025,89.36472771300586,10.635272286994137,17.027583905681798,68.90423354394343
59,1202.0996609831811,50.44647008468852,49.998246836560554,2.0413633864612275,45.46875,53.4375,24.687554403099522,5.0,6.944444444444445,197.63573777240887,549.3526147947092,225.0681961789959,972.056548746114,2.440827376417995,0.02030456852791878,0.10152284263959391,0.24365482233502536,70.93722263274277,29.062777367257233,17.454495032044967,69.52734957228955
60,1191.6963058395065,54.24771227705597,50.45080972414259,2.2545004493558074,45.46875,56.07442578185891,27.69323365408999,6.0,8.333333333333334,128.90597773834583,398.0806307088652,335.8712396909547,862.8578481381658,1.1852179754216265,0.02030456852791878,0.04060913705583756,0.24365482233502536,54.23797482687945,45.762025173120556,19.44367223133621,72.09708533897872
61,1189.6294166265475,55.244623211352796,50.54178432222495,2.2860997263048892,44.80893695192471,56.07442578185891,29.60026041143038,6.0,8.333333333333334,211.9460387386126,430.2107321595872,349.6059152404701,991.76268613867,1.2305590763922702,0.02040816326530612,0.12244897959183673,0.22448979591836732,55.16819031677877,44.831809683221245,20.922723611071362,75.63406768503648
62,1190.426644395427,55.13644496835037,50.50752400458529,2.2817999097790866,44.80893695192471,56.07442578185891,28.510792215148545,5.0,7.042253521126761,224.90775408689322,1948.9544118911783,374.07174896000237,2547.933914938074,5.210108534818999,0.02040816326530612,0.1020408163265306,0.2040816326530612,83.89722185380218,16.10277814619783,20.158991914476413,75.82662946336981
63,1171.056968017092,69.0549438693865,51.4123395002763,3.0052594983426095,44.80893695192471,58.59375,30.310614339581157,6.0,8.571428571428571,1603.2990836371746,3570.239868015468,276.47606672001837,5450.015018372661,12.913377676307066,0.019801980198019802,0.09900990099009901,0.19801980198019803,92.81267264308588,7.187327356914121,21.421373029854873,95.40582775647579
64,1161.683232785086,75.13366560969168,51.86190296823321,3.2990613670060003,44.80893695192471,58.59375,32.473523755043516,8.0,11.428571428571429,3660.4073922254584,2384.6074627238772,107.5822365733371,6152.597091522673,22.165438632597382,0.019704433497536946,0.09852216748768473,0.19704433497536947,95.68322441089958,4.316775589100412,22.953589208499146,104.05163158245529
65,1160.4563245669824,75.84198494923349,51.92067020308947,3.3284417707917604,44.80893695192471,58.59375,30.216956618006424,6.0,8.695652173913043,3915.8235382959647,654.6019055410226,179.8108085010752,4750.2362523380625,3.640503654912982,0.0196078431372549,0.09803921568627451,0.3137254901960784,78.45061496845751,21.54938503154248,21.362127633555264,105.84524929039816
66,1149.399744074567,76.36667598886037,52.42410899362071,3.3664962681963257,44.80893695192471,58.59375,28.38976545560474,4.0,5.970149253731344,2486.9607031363876,258.2944991983518,415.4026228447655,3160.657825179505,0.621793135126341,0.019138755980861243,0.07655502392344497,0.3062200956937799,38.33985492101013,61.660145078989856,20.072546888690493,106.66669635271377
67,1123.3072074296408,48.66260348496908,53.51444060757524,2.3276548289437438,49.429667310829245,58.59375,26.434882910977304,4.0,6.0606060606060606,650.0678867429373,222.34427282311992,436.6856945829703,1309.0978541490276,0.5091631706311243,0.03755868544600939,0.13145539906103287,0.15023474178403756,33.73811265339817,66.26188734660184,18.65432030676964,65.78247926105111
68,1097.6390967897707,47.81396783237179,54.767704595055285,2.41197241290642,50.2833921504575,60.581404437259906,32.24715220234808,8.0,12.121212121212121,971.3902892497078,594.5094002975749,205.50828449031232,1771.407974037595,2.892873159697852,0.01834862385321101,0.05504587155963303,0.23853211009174313,74.31203229653607,25.68796770346393,22.75200768797771,62.93921963223858
69,1094.196200968743,49.81566732353165,54.949618376747345,2.525928338270216,50.2833921504575,60.581404437259906,31.767567851386612,7.0,10.76923076923077,530.7511906968348,624.3558804050981,335.9654297990076,1491.0725009009404,1.8583932304541602,0.018779342723004695,0.056338028169014086,0.15023474178403756,65.01531037277495,34.984689627225066,22.46292040646243,67.34521519110446
70,1098.8372669664047,49.60887106165332,54.7167801781119,2.519689861996016,50.2833921504575,60.581404437259906,28.364949290259304,5.0,7.575757575757576,1000.5752393702185,761.8609144417064,460.8257734806856,2223.2619272926104,1.653251528635774,0.018691588785046728,0.14953271028037382,0.24299065420560745,62.31039578391682,37.689604216083175,20.056022550917877,67.71532512474464
71,1102.631440499535,53.845977985984305,54.54688498099647,2.699197013729338,49.21875000000001,60.581404437259906,28.735030461318672,5.0,7.575757575757576,1636.513420443786,403.49619484291935,589.6561307316931,2629.6657460183983,0.6842906803024816,0.018957345971563982,0.09478672985781991,0.24644549763033177,40.62782560665775,59.372174393342256,20.31761197818728,72.84837479079151
72,1112.676639223069,59.535454026461785,54.080574355744176,2.931606260996807,48.74999999999999,60.581404437259906,28.351480192977174,6.0,8.955223880597014,1843.0261780282221,506.5837035289104,275.736794010224,2625.3466755673567,1.8372002378113053,0.018779342723004695,0.07511737089201878,0.18779342723004694,64.75398575422975,35.24601424577025,20.038466491873514,82.13882807009568
73,1102.1660826543673,64.18704622378831,54.622078912952816,3.16146004234714,48.74999999999999,60.581404437259906,27.729290529743935,5.0,7.575757575757576,2564.552926199987,489.32258457713573,183.25566053693183,3237.1311713140544,2.6701635471637815,0.018867924528301886,0.05660377358490566,0.18867924528301885,72.75325780038392,27.246742199616065,19.60734247781899,88.92547778762302
74,1101.3120262844354,65.059459998745,54.66914132245349,3.1980024371867297,48.74999999999999,59.53125,22.859525086014386,2.0,3.076923076923077,3598.4450306464305,375.44759537913353,265.6314651447732,4239.524091170337,1.4134153692014946,0.01904761904761905,0.05714285714285715,0.1904761904761905,58.56494440362908,41.43505559637093,16.163883599921753,89.90038049287853
75,1097.684197317305,66.8133949623092,54.86081824936215,3.2948133234222583,48.74999999999999,60.0,22.93353427263017,3.0,4.545454545454546,3031.786989862322,494.3957434780282,157.33267994661406,3683.5154132869643,3.1423588770355018,0.018518518518518517,0.05555555555555555,0.16666666666666666,75.8591655217557,24.140834478244305,16.193781877735123,93.45689268784206
76,1088.6122045959798,67.75781586634508,55.3232417123123,3.3329554192216935,48.74999999999999,60.0,24.663919292912205,3.0,4.615384615384615,1846.110955525121,332.47497619606315,160.2804231788346,2338.866354900019,2.07433303208278,0.0182648401826484,0.0730593607305936,0.2374429223744292,67.47261960352662,32.52738039647338,17.368293385900195,94.1098398629702
77,1063.8356712411628,56.54960114558347,56.54893522372973,2.812944514557758,48.74999999999999,60.38879730176217,24.202336335163494,3.0,4.477611940298507,414.11658545227715,263.58621778892973,282.0869582094723,959.7897614506792,0.9344147615402897,0.017777777777777778,0.08888888888888889,0.19555555555555557,48.304778278069804,51.69522172193019,17.03832026710546,76.70788031822597
78,1041.0502366817252,28.873377945061915,57.678171477533695,1.589788565447169,53.78091362616858,60.9375,24.53590308161568,2.0,3.076923076923077,179.4049215764342,466.0498842943229,318.8240889587718,964.278894829529,1.4617775144167018,0.03571428571428571,0.07142857142857142,0.19642857142857142,59.37894492317914,40.62105507682086,17.3435725714678,36.79469604275449
79,1028.433236717036,38.62727442096483,58.423936170722996,2.205958430857768,53.78091362616858,63.28125,25.34137288224879,2.0,3.0303030303030303,342.4697613288746,448.06547434825274,310.0058382719071,1100.5410739490344,1.44534527751459,0.017467248908296942,0.05240174672489083,0.19213973799126638,59.10597946248376,40.89402053751624,17.901891407514714,51.591430289429056
80,1017.7338054795553,47.87728936666936,59.08616696363151,2.8020767756847844,53.78091362616858,65.625,25.716563349048943,2.0,3.076923076923077,516.0243110267719,319.04795436038523,273.72631896690706,1108.7985843540641,1.1655728085064319,0.017391304347826087,0.052173913043478265,0.1565217391304348,53.822840955890676,46.17715904410932,18.181273918291627,65.45176850932162
81,1004.8917552872434,50.95763372593829,59.8601349528757,3.0051383501136426,53.78091362616858,65.625,25.15502279396358,0.0,0.0,1017.4271674341612,234.74224679571637,213.00627615075246,1465.17569038063,1.1020438037683948,0.01694915254237288,0.13559322033898305,0.15254237288135594,52.427252076894355,47.572747923105645,17.765657159344332,70.06178650704314
82,988.0827803750503,42.13948938819576,60.832326242697725,2.5502245847307217,55.66037719863547,65.625,26.03127305345985,1.0,1.5873015873015872,745.7482729151011,131.06048949930428,209.47409078262527,1086.2828531970306,0.6256644390227138,0.01694915254237288,0.11864406779661017,0.2033898305084746,38.48669036513088,61.51330963486912,18.401695796774437,57.02582785222013
83,976.6479185105221,35.1912877189385,61.51199835621892,2.1497207740708024,55.66037719863547,65.625,28.257627434277104,2.0,3.3333333333333335,287.6874452510108,120.14077975818128,299.656529951233,707.4847549604251,0.4009282887235374,0.016736401673640166,0.11715481171548116,0.21757322175732216,28.618758858017294,71.38124114198271,19.93785639097064,44.6504110976391
84,969.2818049283018,25.164378656575394,61.94295650274734,1.5976495234209767,58.125,65.625,28.451710796818194,3.0,5.0,68.96700606551565,137.8811348789712,375.15624075260087,582.0043816970878,0.36752989794963264,0.016666666666666666,0.08333333333333333,0.23333333333333334,26.87545614181293,73.12454385818707,20.118207876957047,29.70518025694497
85,967.6823022894896,25.60280791691776,62.04685376164616,1.6274218896361037,58.125,65.625,27.783208787200582,3.0,5.172413793103448,48.82361179216949,122.85469458367814,340.2986485717774,511.976954947625,0.36102022473287915,0.01694915254237288,0.06779661016949153,0.23728813559322035,26.525706096963756,73.47429390303624,19.643203231471134,30.67185180303593
86,964.6818018607504,28.488034106694748,62.2507991104108,1.8341677211899134,58.125,66.17581324790319,28.53392665707876,3.0,5.084745762711864,167.58324218382091,179.5212856262032,287.5332502732919,634.6377780833161,0.6243496550592792,0.016597510373443983,0.06639004149377593,0.24896265560165975,38.436900153526004,61.563099846473996,20.175868020428975,35.24727820289376
87,966.8809506695894,28.409321085343237,62.10885612102124,1.827129665606934,58.125,66.17581324790319,29.035719128761098,5.0,8.620689655172415,268.7749579704428,196.66780994738386,256.54124269125003,721.9840106090767,0.7666128373131628,0.016666666666666666,0.08333333333333333,0.16666666666666666,43.394501676955,56.605498323045,20.52589084308019,34.51153074885682
88,965.6085097433308,27.410938435204063,62.18696541467308,1.7620918529731495,58.125,66.17581324790319,26.04019618104619,3.0,5.172413793103448,323.27648331434534,204.12467571558724,181.8307386653752,709.2318976953078,1.1226081861287478,0.03292181069958848,0.08230452674897121,0.16460905349794241,52.888149280917524,47.111850719082476,18.404545658777735,34.03349440812958
89,949.2732622148857,37.17193297124026,63.30423755552197,2.505307551134758,58.125,68.50890494846759,23.623935202654,3.0,5.0,128.9638929671006,146.4371365306704,270.13719356597977,545.5382230637508,0.5420843187034287,0.03305785123966942,0.049586776859504134,0.1652892561983471,35.15270287938655,64.84729712061345,16.700350417614455,50.12942068593393
90,944.7983677877845,32.83969751928203,63.583893558157676,2.25380431160243,59.53125,68.50890494846759,20.798039429516404,2.0,3.389830508474576,366.9816300455059,153.10148914925225,259.30960478073774,779.392723975496,0.590419661773458,0.03333333333333333,0.06666666666666667,0.2,37.12351374699984,62.87648625300017,14.705343710875432,44.20515520961901
91,955.7602669248384,44.32769592498711,62.912339934879675,2.91704960371056,57.16512779524221,68.50890494846759,20.32265231909448,2.0,3.3333333333333335,878.7741692817949,349.35547157769247,90.96378264825081,1319.0934235077382,3.8405996475390682,0.03319502074688797,0.049792531120331954,0.23236514522821577,79.34140245396262,20.65859754603738,14.35661760363744,61.071835753782246
92,976.420559838203,57.201295068953776,61.65936559457415,3.6010851129002663,54.31550804551867,68.50890494846759,21.883707856250684,4.0,6.666666666666667,2183.7949895894626,298.98516929776025,17.269265448405644,2500.049424335629,17.313137619606373,0.017391304347826087,0.06956521739130435,0.19130434782608696,94.5394392770282,5.46056072297181,15.448288809416931,79.52946454045325
93,988.8359049885717,64.54667570818732,60.937133637399995,3.990037631512097,53.095176542689366,68.50890494846759,18.56687521293487,2.0,3.278688524590164,1788.0020984552784,185.62738149545365,93.39475664432457,2067.0242365950567,1.9875567769010711,0.01762114537444934,0.0881057268722467,0.19383259911894274,66.5278327852474,33.4721672147526,13.004438982350027,89.23057247120164
94,1012.9704363338615,74.73617643147823,59.56489277011723,4.527696778167789,52.875429717245325,68.50890494846759,19.228386128966726,2.0,3.1746031746031744,720.5916624470239,508.50115724970965,208.87957235208032,1437.9723920488136,2.4344226269890927,0.0182648401826484,0.091324200913242,0.2009132420091324,70.88302435053879,29.116975649461203,13.490388104460981,104.8229417062768
95,1040.3437575573487,50.165833963346685,57.80800952370489,2.7985501108782125,52.875429717245325,64.43213650534506,20.215875592047258,2.0,3.278688524590164,458.3413682652518,1018.3320196024192,171.21423178110635,1647.8876196487772,5.947706618830229,0.017937219730941704,0.053811659192825115,0.21524663677130046,85.60676126867936,14.393238731320638,14.276673344814002,68.35412854339782
96,1045.4886053095167,43.42242906072907,57.48748150361539,2.362553769464611,52.875429717245325,61.83267266038234,21.26924294001476,3.0,4.838709677419355,1169.18400697608,726.6943094467048,78.442030044008,1974.320346466793,9.264093612047144,0.03619909502262444,0.05429864253393665,0.16289592760180996,90.25729852243083,9.74270147756917,15.035306508345947,59.75887987048995
97,1047.5902673955402,42.786473231233394,57.3693481222929,2.3290659739454043,52.875429717245325,61.83267266038234,22.468698951698755,4.0,6.349206349206349,1375.276709281431,201.60177001136213,95.42880202811845,1672.3072813209117,2.1125882933326503,0.03587443946188341,0.053811659192825115,0.23318385650224216,67.87239731826854,32.12760268173146,15.885171509427476,58.48042165218091
98,1057.8756555068244,49.59260747180684,56.84153764772505,2.650119316420036,51.09375,61.83267266038234,19.811848093801085,2.0,3.125,1480.0989253681946,119.19867884673859,138.450034647254,1737.7476388621872,0.8609508776970375,0.0182648401826484,0.0547945205479452,0.2374429223744292,46.26403028770328,53.735969712296715,13.904547142447921,67.56002114414882
99,1076.2707303656223,61.00495770684516,55.92410907477548,3.112968842232793,49.40219624587961,61.83267266038234,21.244575737827024,2.0,3.125,2322.3150550456303,131.79716637587555,177.70123694007253,2631.8134583615783,0.7416783847167168,0.018604651162790697,0.05581395348837209,0.22325581395348837,42.58411835531567,57.41588164468434,15.011698731598582,85.32125233394036
100,1070.0987902219085,61.11154593822738,56.246853895232306,3.1107416917822084,49.40219624587961,61.83267266038234,24.833997417894018,5.0,7.8125,2659.4952979989293,359.5967154695626,163.877670237377,3182.969683705869,2.194299656253877,0.01834862385321101,0.05504587155963303,0.23853211009174313,68.69423324007265,31.305766759927355,17.559979648512076,85.24531892965516
101,1075.2667167507961,58.838099512611436,55.96333372346768,2.9899607462984457,49.40219624587961,61.83267266038234,25.625460974134704,5.0,7.6923076923076925,2837.3387641521085,851.4579472627454,237.07760937880593,3925.87432079366,3.59147348201185,0.018433179723502304,0.05529953917050691,0.18433179723502305,78.2204992815982,21.779500718401824,18.065696589336277,80.7676140396919
102,1109.9332915407033,73.71653894615113,54.283126994241805,3.410063994935227,45.687264448378116,59.266235705989935,28.741896687528634,6.0,8.955223880597014,1261.9234271941216,706.2484461645618,544.2124994242785,2512.3843727829617,1.297743890321705,0.03755868544600939,0.056338028169014086,0.20657276995305165,56.479048678484745,43.52095132151524,20.276638578524743,102.30868421021447
103,1120.8736174828964,67.49597908822348,53.71401801565594,3.0700451044998833,45.687264448378116,59.09336214869579,28.0490135784706,5.0,7.462686567164179,2095.1982478955033,648.3873277575028,579.5141285330159,3323.0997041860223,1.1188464540093834,0.018867924528301886,0.05660377358490566,0.20754716981132074,52.804508410330925,47.19549158966908,19.833623257799463,93.38704716466594
104,1113.4964135736668,70.40955173648771,54.087189500672714,3.2168735128796673,45.687264448378116,59.09336214869579,29.747510629615174,7.0,10.606060606060606,2476.2139593056268,1939.6718655965444,307.7494335425873,4723.635258444759,6.3027633983544815,0.037209302325581395,0.05581395348837209,0.20465116279069767,86.30655348596768,13.693446514032319,20.9631402589084,97.1072383935554
105,1102.4236526667228,65.17074047545488,54.59993396675085,2.9591372194758323,45.687264448378116,59.09336214869579,29.717901229454267,8.0,12.121212121212121,3126.2169790262083,2181.870982149026,156.86984076400597,5464.95780193924,13.908798348507407,0.037209302325581395,0.05581395348837209,0.16744186046511628,93.29255130679184,6.707448693208161,21.011550341517154,90.40143096525016
106,1097.5441508179317,68.744666226735,54.86498556747623,3.164069470298956,45.687264448378116,60.9375,28.55969192348248,6.0,9.23076923076923,1600.5353143302623,789.0436052230934,221.69494557091915,2611.273865124275,3.559141157643949,0.018604651162790697,0.11162790697674418,0.16744186046511628,78.06604433987793,21.933955660122074,20.179914368271596,95.52021886910438
107,1089.6998158295157,75.12513673233681,55.304548364869916,3.547792700835389,45.687264448378116,61.976921905142675,31.282729128589793,8.0,12.5,397.59174123882417,230.9081624860596,282.233295358487,910.7331990833708,0.8181464280915713,0.018518518518518517,0.05555555555555555,0.24074074074074073,44.998929428931845,55.001070571068155,22.079304839993885,103.91186373469165
108,1059.4685069996317,39.5304990297075,56.71156343160601,2.1302190550177835,52.646572698216474,61.976921905142675,31.660075827150276,9.0,14.285714285714286,362.0301073749672,193.8690998047337,353.50211723635994,909.4013244160608,0.5484241546284947,0.01818181818181818,0.07272727272727272,0.2545454545454545,35.418212315350715,64.58178768464929,22.38311780074005,51.08217774798687
109,1056.8099061985058,36.1870201782368,56.84211553594543,1.9725021196334407,53.10504856638944,61.976921905142675,33.52374296484014,9.0,14.285714285714286,495.55393170093555,145.84664911931975,560.3043406708197,1201.7049214910749,0.26029898134414964,0.0182648401826484,0.0730593607305936,0.2557077625570776,20.65374845154063,79.34625154845936,23.703969211827282,45.66160352826182
110,1063.6620499588478,40.65494539382911,56.49225245275382,2.183605271125374,52.03124999999999,61.976921905142675,33.98912324367751,8.0,12.5,749.8448527281556,91.5721352912127,677.1876207824064,1518.6046088017747,0.1352241719738061,0.01809954751131222,0.0904977375565611,0.2533936651583711,11.911671307940246,88.08832869205976,24.010124432159362,51.497086303778204
111,1076.6380826610848,53.78198327705881,55.86779824350492,2.7824002362066502,50.56136052515929,61.976921905142675,33.826937936729024,7.0,10.76923076923077,840.3177870766174,45.42484169752621,583.3418715886511,1469.0845003627946,0.07787001741160449,0.01818181818181818,0.05454545454545454,0.2545454545454545,7.22443487189684,92.77556512810317,23.891139862161843,72.1842793323899
112,1115.733354294672,84.4969212740654,54.07327933529255,3.937651463369279,45.795412740450544,61.976921905142675,32.03098015975814,6.0,8.955223880597014,836.3944179984046,41.2672562402134,572.9863171284171,1450.647991367035,0.07202136422214882,0.018957345971563982,0.05687203791469195,0.26540284360189575,6.718276950982877,93.28172304901712,22.447829216725214,115.64600207577895
113,1138.8649206030957,76.28280759498976,52.914055625293805,3.4450791758598687,45.795412740450544,60.9375,27.635124150517967,3.0,4.411764705882353,1557.4013713792096,306.4606475663513,565.1162579255151,2428.978276871076,0.5422966394407719,0.01932367149758454,0.07729468599033816,0.27053140096618356,35.16163010232621,64.83836989767379,19.536544241113912,106.32304726961173
114,1182.1415485373336,95.56403739426128,51.070419068078195,3.9093983724579737,42.487861225998635,57.1875,30.75960920694399,5.0,7.142857142857143,1986.5148952984948,1114.1588495120677,284.8726193643092,3385.5463641748715,3.911077350986921,0.019704433497536946,0.059113300492610835,0.21674876847290642,79.6378690757326,20.362130924267397,21.649258913809565,133.24186142709246
115,1197.806156495751,86.93897391977828,50.34439496984737,3.494234430408386,42.487861225998635,56.71875,28.80846383553509,5.0,7.142857142857143,156.40311284055022,4965.621799775818,126.28871756903614,5248.313630185404,39.31959952844833,0.020100502512562814,0.06030150753768844,0.16080402010050251,97.51981663584128,2.480183364158737,20.352024953796125,120.78603548339423
116,1196.1443508605596,88.81948569502481,50.427317868704364,3.5966601007345873,42.487861225998635,57.187500000000014,27.881572540705857,5.0,7.142857142857143,645.3606769392576,8462.213994073187,163.39875052140596,9270.97342153385,51.788731352413855,0.02,0.06,0.16,98.1056563126625,1.8943436873374933,19.66483176508726,123.69674715441978
117,1189.6423931796105,94.35633188183786,50.74064800624924,3.862179386438294,42.487861225998635,57.187500000000014,29.8728262026462,7.0,10.144927536231885,4603.230485313038,3861.38944010282,148.30723738694118,8612.9271628028,26.036419450173273,0.03980099502487562,0.05970149253731343,0.1791044776119403,96.30128537603528,3.698714623964717,21.123182984669402,132.62068531925905
118,1171.1837860677358,89.19276676894444,51.50623458503418,3.637601648774599,42.487861225998635,57.187500000000014,31.975011032707343,8.0,11.594202898550725,4528.15404278984,820.6293227663367,271.79720413874975,5620.580569694926,3.019270655732771,0.019230769230769232,0.057692307692307696,0.2692307692307693,75.11986413321831,24.880135866781668,22.57493573958632,124.54819417939122
119,1165.4649326894446,89.10635948464882,51.75776929382905,3.624665720932244,42.487861225998635,57.187500000000014,33.428122186827494,9.0,13.043478260869565,2910.1837846029116,60.388299865823335,477.3941323582255,3447.96621682696,0.1264956893531933,0.01932367149758454,0.0966183574879227,0.25120772946859904,11.229132126180092,88.77086787381991,23.635736450393598,123.98805319849826
120,1134.3098852550859,43.435717628134306,52.972075712272556,1.9991719950490308,48.28125,57.187500000000014,29.80769971894563,6.0,8.955223880597014,543.1703632839342,225.52259229503278,610.3096717755814,1379.0026273545484,0.36952157687247056,0.038834951456310676,0.13592233009708737,0.1553398058252427,26.98180029527788,73.01819970472211,21.024345556998213,56.507142470480844
121,1122.434253765287,35.77381806588515,53.50845058145348,1.6710975627309017,48.681466941952,57.187500000000014,32.129840799978936,8.0,11.940298507462687,414.97064659102523,241.15324690922168,598.07160340651,1254.195496906757,0.40321801860455414,0.01932367149758454,0.13526570048309178,0.15458937198067632,28.73523666732407,71.26476333267593,22.715163915115458,45.45837060483288
122,1136.5012574134955,38.0088608054187,52.85182119018274,1.7419943420396042,48.681466941952,56.25000000000001,29.99606172808757,7.0,10.294117647058824,117.16018955957468,95.11957676149586,506.1421189403321,718.4218852614026,0.18793056969975122,0.019417475728155338,0.11650485436893203,0.21359223300970873,15.819996091796053,84.18000390820396,21.19517115595638,48.77915968479045
123,1146.5801477071411,37.17744839560285,52.383977653684134,1.68015394810563,48.681466941952,55.3125,30.808930120437175,7.0,10.144927536231885,418.31518597274226,132.47270908585534,513.5820333143772,1064.3699283729748,0.25793875270703887,0.01951219512195122,0.058536585365853655,0.23414634146341462,20.504873719166692,79.49512628083332,21.775544633663955,47.959672737551244
124,1152.9609162148365,38.764029541377774,52.098423761909906,1.7410769519961724,48.46233924012126,55.3125,30.786782373495253,8.0,11.594202898550725,425.7764220136015,222.14798540906418,511.20857946670327,1159.132986889369,0.4345544936683392,0.019801980198019802,0.0594059405940594,0.25742574257425743,30.291947471240903,69.70805252875911,21.736519465078292,49.55148502677135
125,1152.8587036561835,44.21749744648088,52.12049302551918,1.9819354336030357,47.83709571622242,55.78125,30.063645199768917,8.0,11.594202898550725,272.1829263050114,217.40794923725124,545.0262873953444,1034.6171629376072,0.3988944281499409,0.019801980198019802,0.1188118811881188,0.25742574257425743,28.514977265116766,71.48502273488323,21.252546172301194,58.42716436051246
126,1142.9308773314406,55.49069570555952,52.62160401108837,2.57813155118562,47.83709571622242,58.3112438494745,29.4020619931428,8.0,11.764705882352942,906.2137275658577,378.2427545026909,603.6280179052512,1888.0844999738,0.6266156362577291,0.019704433497536946,0.059113300492610835,0.23645320197044334,38.52266154894167,61.47733845105833,20.78803470023387,75.4801757368971
127,1135.8149972128765,61.37634153874816,52.98117656461369,2.8848907874751877,47.83709571622242,58.59375,28.504539731772944,7.0,10.294117647058824,2263.053324138053,603.5957091590462,487.78603285492966,3354.435066152029,1.237419008548281,0.019417475728155338,0.058252427184466014,0.17475728155339804,55.30564475498774,44.69435524501227,20.138795685186782,84.69829198637387
128,1133.9728113728177,65.75945878781134,53.08856451268905,3.061033494629483,47.774964644315034,58.59375,30.318161316669382,7.0,10.294117647058824,2970.75765651276,399.8181709834461,310.12995522474046,3680.705782720947,1.2891955912279152,0.019417475728155338,0.058252427184466014,0.17475728155339804,56.3165330288093,43.683466971190704,21.4301997301016,90.52886759018017
129,1129.1376193586937,64.03949683777684,53.306690161542136,2.9810458693534043,47.774964644315034,58.59375,29.331509802320166,7.0,10.447761194029852,2701.334066228757,308.0919966376079,276.69069869726314,3286.1167615636277,1.1134888093029178,0.0196078431372549,0.11764705882352941,0.29411764705882354,52.68486894284407,47.31513105715594,20.735727447831884,88.68387647649071
130,1118.662643869625,57.109197572998305,53.77174311936597,2.6747170959761264,47.774964644315034,58.59375,27.978201770242745,5.0,7.462686567164179,1986.56493567705,850.8494905956136,275.917374798589,3113.331801071253,3.083711169754014,0.019230769230769232,0.057692307692307696,0.2692307692307693,75.51246994629555,24.487530053704454,19.753397861221398,77.01531184799424
131,1121.4147082537618,53.408966905161535,53.62449240873287,2.5380610057645754,47.774964644315034,58.59375,27.861726236215457,5.0,7.462686567164179,1256.1261104883667,867.1382368595443,330.4040424458686,2453.6683897937796,2.6244782916105245,0.0392156862745098,0.058823529411764705,0.27450980392156865,72.4098223373369,27.590177662663102,19.675131337347125,72.90394548464928
132,1132.102380575837,46.38004076253386,53.08747702046936,2.1706555562153698,47.774964644315034,58.59375,27.943806197539566,5.0,7.352941176470588,261.293766115131,277.37304042048584,399.9550139753735,938.6218205109903,0.6935105967631764,0.03902439024390244,0.058536585365853655,0.25365853658536586,40.95106331715255,59.04893668284745,19.71218450066553,61.59644962184885
133,1147.1070745676416,38.349322901007646,52.363291851466414,1.7314160764093263,47.774964644315034,57.187499999999986,27.252581683256988,4.0,5.797101449275362,117.94904039128576,58.68114560281705,379.49695301564606,556.1271390097488,0.15462876615085158,0.0392156862745098,0.058823529411764705,0.2549019607843137,13.39207636982166,86.60792363017835,19.26276763937942,50.64890759946437
134,1146.8276048594316,27.253781854984,52.34795317287244,1.2508923109856485,49.95219249768722,55.3125,25.64955361209853,3.0,4.3478260869565215,81.86727331698918,111.07194146346255,383.96228790285153,576.9015026833033,0.28927825716979133,0.03940886699507389,0.059113300492610835,0.2561576354679803,22.43722451387737,77.56277548612263,18.136267287783692,34.1321587806696
135,1154.4357641831386,32.82077286591004,52.01518405613133,1.4694563863960988,48.322351376108614,55.3125,24.985621233832795,2.0,2.898550724637681,193.56959582747896,118.0210605699955,436.2484125019285,747.839068899403,0.2705363668675213,0.0196078431372549,0.058823529411764705,0.2549019607843137,21.2930832932018,78.70691670679818,17.66605627989326,43.198005025237464
136,1163.2708762798816,32.668918774776685,51.61932465199776,1.4475984947074152,48.322351376108614,55.3125,25.18049335722292,3.0,4.411764705882353,67.7113879094998,234.6959988418627,401.78555446119566,704.1929412125581,0.5841324961436103,0.02,0.06,0.26,36.873967143885636,63.12603285611436,17.803963117661812,42.96697749651012
137,1167.729262839206,32.70239938171044,51.42231050813892,1.448560144107573,48.322351376108614,55.3125,24.988983407735237,2.0,2.985074626865672,34.66911986239536,562.3155900240147,316.2873360578261,913.2720459442362,1.7778631197589516,0.02,0.08,0.28,64.0011059980963,35.99889400190369,17.646540531509903,42.479119673997594
138,1179.230214779641,28.547632861016464,50.91043022106072,1.2306803019775536,48.28124999999999,53.65770079710449,24.14572666674337,1.0,1.4705882352941178,1.736233963315364,628.091720426975,265.80727301277415,895.6352274030646,2.3629591218777155,0.020100502512562814,0.08040201005025126,0.2814070351758794,70.26428321728609,29.735716782713904,17.041047851158886,35.81571319183929
139,1195.7287090071954,40.05083273627678,50.2340414262996,1.6565024675734046,46.14351324926833,53.65770079710449,22.92435630990709,1.0,1.4705882352941178,123.60898646188475,292.44288372531423,269.3425375082454,685.3944076954444,1.0857656812428362,0.020202020202020204,0.08080808080808081,0.26262626262626265,52.055975942411024,47.944024057588976,16.18346362275592,54.18192887589417
140,1191.4707613161431,45.50201456755077,50.43109801475183,1.918262058565877,46.14351324926833,54.375,26.148739944007502,5.0,7.462686567164179,174.72731830330864,279.5530878571674,270.229897416489,724.510303576965,1.034500958368456,0.020202020202020204,0.04040404040404041,0.26262626262626265,50.84789732407213,49.15210267592788,18.48418220108114,61.95971209303328
141,1183.729691341072,48.379186512814094,50.7713037245138,2.0595051964618762,46.14351324926833,55.3125,27.749487658156067,6.0,8.955223880597014,522.9951496771291,1149.0387991570863,288.4020786881687,1960.436027522384,3.9841557466701576,0.02040816326530612,0.04081632653061224,0.16326530612244897,79.93642151595915,20.063578484040864,19.62007243677208,65.38596624640961
142,1174.5775531298957,52.169342939880465,51.181389925995596,2.236194694957758,46.14351324926833,55.3125,27.255958565752785,5.0,7.352941176470588,2117.783508180523,797.0275232528651,432.4563227045558,3347.267354137944,1.8430243273316087,0.019801980198019802,0.0594059405940594,0.15841584158415842,64.82618912590962,35.173810874090364,19.272831360948935,71.74771013770805
143,1170.846017690739,51.93213921461786,51.34346017447175,2.222648552463952,46.14351324926833,55.3125,26.969520297385632,5.0,7.142857142857143,1265.354157761204,560.9244752294926,409.2872722508686,2235.5659052415654,1.3704908831997087,0.019704433497536946,0.059113300492610835,0.21674876847290642,57.81464476040542,42.18535523959457,19.06717309646087,71.21324316205266
144,1168.5434957350776,51.414105553847264,51.442593257842454,2.1987475987980165,46.14351324926833,55.3125,26.372830337325222,5.0,7.142857142857143,619.9686901928181,397.4012646639247,243.67010439268878,1261.0400592494316,1.6308987335741814,0.0196078431372549,0.0784313725490196,0.27450980392156865,61.99017517327777,38.00982482672224,18.646858461722342,69.64824515651539
145,1149.9945563840934,31.05148997976873,52.212047825724596,1.4040049499083351,48.75,55.3125,26.364217393278764,5.0,7.246376811594203,68.85208097088717,412.62466687449273,143.35968926440395,624.8364371097839,2.878247497547743,0.02,0.08,0.16,74.21515773213777,25.78484226786224,18.641018469889985,40.003603764560054
146,1157.3501114926667,31.652541265423533,51.88133999964282,1.4186110867455595,48.75,55.3125,24.45492509563049,4.0,5.714285714285714,194.9533669216891,317.69736056829817,131.61051372833063,644.2612412183179,2.413920830246788,0.01990049751243781,0.07960199004975124,0.23880597014925373,70.70816665869457,29.291833341305434,17.281239388747114,41.12015294120857
147,1165.5336726481019,31.86828134973908,51.51715181636202,1.411999248752423,48.75,54.84375,24.63703277930582,4.0,5.633802816901408,71.21398174338012,330.09865274650736,182.778811295426,584.0914457853135,1.8060006540526614,0.03980099502487562,0.05970149253731343,0.27860696517412936,64.36208956132224,35.63791043867778,17.399969766041572,41.29653764446202
148,1185.4405948534315,43.05725049836016,50.678370688389364,1.7716683972922451,45.796374893681005,53.906249999999986,26.57045831033244,7.0,9.722222222222221,110.82906584806479,348.57112881344864,263.6150227489418,723.0152174104552,1.3222733863138605,0.020512820512820513,0.06153846153846154,0.26666666666666666,56.93874778510476,43.061252214895234,18.773440714316802,57.62267056902922
149,1192.1540537880387,47.450603210952856,50.40671731325722,1.9528579805686994,45.796374893681005,53.906249999999986,26.440194343742935,7.0,9.859154929577464,218.1364901215466,471.5361171678828,409.7494810673421,1099.4220883567714,1.1507912491788759,0.02030456852791878,0.08121827411167512,0.16243654822335024,53.50548313873894,46.49451686126107,18.695264974403774,64.42578934761262
150,1181.9647352318889,55.2740983978689,50.87174165412446,2.3301800631694323,45.796374893681005,55.78125,27.171208417902374,8.0,11.594202898550725,1376.4832228849057,1115.185116628191,432.32106431323245,2923.989403826329,2.5795299111777688,0.01990049751243781,0.11940298507462686,0.15920398009950248,72.06337075498914,27.936629245010867,19.194136223618706,75.76113325550351
151,1174.2910407752101,62.372506748216246,51.236925557559026,2.683060866555731,45.796374893681005,56.083022808009716,26.800736428831833,7.0,10.144927536231885,952.576852246116,1804.182289817906,212.8807425847835,2969.6398846488055,8.475084537528605,0.020202020202020204,0.04040404040404041,0.16161616161616163,89.4460044547441,10.553995545255903,18.949750604712218,86.71533423389373
152,1170.6319048277862,61.87613571821313,51.39456795435296,2.6569601805901004,45.796374893681005,56.083022808009716,24.50037972680249,5.0,7.142857142857143,2180.79367616416,692.7878545886927,107.18761872267385,2980.769149475527,6.463319764394993,0.019801980198019802,0.1188118811881188,0.19801980198019803,86.60113687248581,13.398863127514195,17.32297714550288,86.39657866874968
153,1158.4082757881363,64.65971530185496,51.950333292213436,2.7838079305276193,45.796374893681005,56.557115747772556,22.824356410659426,4.0,5.797101449275362,1191.3803618077914,225.84749390858815,157.69827189291414,1574.9261276092936,1.432149453495287,0.01932367149758454,0.07729468599033816,0.1932367149758454,58.88410563903129,41.11589436096871,16.07916045713897,89.67621466011873
154,1136.2943422572043,47.05178981544122,52.8899493448958,2.0982468471868314,47.02968237108463,56.557115747772556,22.918677887200197,3.0,4.477611940298507,350.60527966495056,232.2162192798094,183.02084914319653,765.8423480879565,1.268796535295944,0.03827751196172249,0.057416267942583726,0.21052631578947367,55.92376908008814,44.07623091991187,16.16134558693517,62.6325780593378
155,1135.6188664037188,39.08703241577347,52.897015897883286,1.813923686530764,49.218750000000014,56.557115747772556,23.498538109303436,3.0,4.411764705882353,263.83714865677695,183.16682242464003,267.80527530239647,714.8092463838134,0.6839552440399629,0.038834951456310676,0.058252427184466014,0.21359223300970873,40.61599893825513,59.384001061744875,16.615575182476572,53.101815669873744
156,1144.663767379756,39.44815129657461,52.47990453652746,1.8225495260614974,49.218750000000014,56.557115747772556,23.713587345767724,3.0,4.225352112676056,585.2095022824435,198.11319177088023,420.28029465246595,1203.6029887057898,0.4713834892846976,0.0392156862745098,0.11764705882352941,0.21568627450980393,32.0367526696835,67.9632473303165,16.730156998291633,52.7852168909448
157,1162.9021978614119,42.26195186742443,51.66358989237038,1.8880171242997508,47.8125,56.557115747772556,23.485401550627465,3.0,4.166666666666667,608.1095588273315,305.30743040426955,426.6249317796394,1340.0419210112404,0.7156342905950165,0.019704433497536946,0.059113300492610835,0.19704433497536947,41.71251965049149,58.287480349508506,16.603507455657663,57.78557643617724
158,1155.4521889201533,46.664661424289896,52.012159434924065,2.0926727210541936,47.8125,56.557115747772556,23.477260097743336,3.0,4.285714285714286,445.1435666895044,305.5813878551519,320.81405420627334,1071.5390087509295,0.9525187062368304,0.01951219512195122,0.058536585365853655,0.1951219512195122,48.78410143750473,51.21589856249527,16.59624469974822,64.04820214191278
159,1143.601406283744,57.18806972903893,52.59762558712378,2.6383731239383206,47.8125,56.993177485105846,21.811798022023797,2.0,2.73972602739726,616.6174843301246,981.6970988436746,188.70511422906006,1787.0196974028593,5.2022813629313704,0.020100502512562814,0.04020100502512563,0.20100502512562815,83.87690042608173,16.123099573918267,15.416923080857483,79.17817562944269
160,1153.2555199164965,62.42549537923464,52.18111948875317,2.8571682869824535,47.8125,56.993177485105846,19.653554931465337,1.0,1.3513513513513513,754.8934141141341,1284.6658429824377,81.24561507664926,2120.804872173221,15.812125266950714,0.020618556701030927,0.041237113402061855,0.16494845360824742,94.05191203300274,5.948087966997251,13.89583863560117,87.20588772077673
161,1134.7297528412664,72.67666431418422,53.096501119811975,3.45090880450637,47.8125,61.40625,20.45590027063837,1.0,1.3888888888888888,661.6378746238959,1355.6830985768204,72.10379867071795,2089.424771871434,18.80182630554493,0.02030456852791878,0.04060913705583756,0.16243654822335024,94.9499607532666,5.050039246733413,14.369993264104028,100.74844223178054
162,1105.833564753686,89.33766232990963,54.613528795970105,4.417832445583486,47.8125,62.8125,18.018020970642855,0.0,0.0,1837.135439614536,1395.6453100763763,47.21516369542139,3279.9959133863335,29.5592602215571,0.038834951456310676,0.058252427184466014,0.1553398058252427,96.72766947645356,3.2723305235464455,12.593306622522867,125.47600304535028
163,1069.9855276471856,80.48252666658362,56.38189433721042,4.085957387480076,47.868245737357206,62.8125,17.705072064214495,0.0,0.0,6050.711238501727,1639.0838280569744,26.081068197149417,7715.876134755851,62.84573222488339,0.03755868544600939,0.056338028169014086,0.18779342723004694,98.43372459653575,1.5662754034642548,12.355656794401556,112.80288339426411
164,1048.6570383019089,84.7622737787149,57.56492273590879,4.329508040450513,47.868245737357206,63.75,20.85719358149053,2.0,3.0303030303030303,4508.896117547455,710.4393040767152,60.09773027717457,5279.433151901345,11.821399923093995,0.017699115044247787,0.05309734513274336,0.1592920353982301,92.20053967586806,7.799460324131945,14.722275107119827,119.66969764774294
165,1034.2928823957404,91.44280024988488,58.42250193840408,4.667937767577195,47.868245737357206,63.75,21.4686267060001,2.0,3.278688524590164,1466.3242848314756,159.8666348653615,120.54481705831971,1746.7357367551567,1.3262008169792805,0.01702127659574468,0.05106382978723405,0.15319148936170213,57.011450056209526,42.988549943790474,15.11121652965951,128.92776313235424
166,992.5285829723439,48.84641998107179,60.5839620257624,2.69692733291289,50.22037110374703,65.38168721993019,22.10356646672761,3.0,5.084745762711864,41.1153847726582,53.50023028555089,227.1616976435338,321.7773127017429,0.23551607000888156,0.016666666666666666,0.05,0.23333333333333334,19.062161612126058,80.93783838787394,15.386903644190182,62.37961032825877
167,975.0044239606108,22.538577178069136,61.57152267010476,1.4428366298355841,59.459899938858015,65.38168721993019,22.886965573712384,5.0,8.620689655172415,43.14319423704573,69.28592650170701,275.73659757976253,388.16571831851525,0.2512757722763465,0.016736401673640166,0.050209205020920494,0.20083682008368198,20.081566177791526,79.91843382220847,16.164333253205942,26.720614568713092
168,966.0672711904085,29.691830902404387,62.16701070139698,1.9378936424249587,59.459899938858015,66.5625,23.849287682144105,5.0,8.620689655172415,38.827410739302024,230.70060067482314,200.20154651136238,469.72955792548754,1.1523417510749838,0.01639344262295082,0.04918032786885246,0.18032786885245902,53.538976814413815,46.46102318558619,16.819582973888018,37.63052414911362
169,954.3740411723056,30.018569789607835,62.93095892460992,1.9888410363509497,59.53125000000001,67.03124999999999,26.301675595951497,6.0,10.526315789473685,195.4140211620775,290.6952603150534,152.10423767546132,638.2135191525922,1.91115819491695,0.0163265306122449,0.0979591836734694,0.1795918367346939,65.64941054230383,34.35058945769617,18.597730550144984,38.56496348806631
170,953.1985528379645,30.78580770930057,63.01146402304933,2.029274817370793,58.966437375903006,67.03124999999999,23.207359772341473,4.0,7.017543859649122,379.26001118984516,183.05783960677962,210.35285381315185,772.6707046097765,0.8702417689535256,0.016260162601626018,0.0975609756097561,0.1788617886178862,46.53097708540968,53.469022914590326,16.40536923650516,39.63797708138871
171,944.3947871003722,34.69318608015085,63.618292524956374,2.330845464204667,58.966437375903006,68.90625,27.153531707029703,6.0,10.526315789473685,255.97400732709252,126.97210117730776,253.4617501460249,636.4078586504252,0.5009517258685239,0.01593625498007968,0.09561752988047809,0.19123505976095617,33.37560543985176,66.62439456014825,19.200094428587942,45.44482646854225
172,941.5841537577411,32.25587233564121,63.796805186447635,2.1745066226117733,58.966437375903006,68.90625,26.687323744980826,5.0,8.771929824561404,237.65901665545186,529.5582319327634,160.49080187177051,927.7080504599858,3.2996173348044686,0.032388663967611336,0.048582995951417005,0.24291497975708504,76.7421162831116,23.25788371688841,18.868825842289112,41.795459504547196
173,943.8315601165552,35.09493235116511,63.65758174366411,2.3404381619879846,58.125,68.90625,29.39471507862102,4.0,7.017543859649122,190.56681930920502,999.0273948506089,155.9476445085712,1345.541858668385,6.406171750774346,0.032388663967611336,0.048582995951417005,0.24291497975708504,86.49774764006187,13.502252359938126,20.782601584874865,45.44908843240685
174,953.1017115193168,35.44956576221599,63.04016010064095,2.3635802161945314,58.125,68.90625,28.557668537218913,4.0,7.017543859649122,343.6311679091027,647.2117149581276,284.78865399551046,1275.6315368627406,2.2726035812098417,0.03278688524590164,0.04918032786885246,0.22950819672131148,69.44328956486956,30.556710435130434,20.181884585544204,45.85045688639767
175,951.4754858071071,38.18905790358555,63.163086207566174,2.5726577451052686,58.125,68.90625,27.33028928066324,3.0,5.172413793103448,329.8841967791661,193.84303197146926,403.74696373755586,927.4741924881912,0.48011019123718135,0.016666666666666666,0.05,0.18333333333333332,32.43746270241347,67.56253729758654,19.32219387649748,50.86071685657471
176,951.7088456730054,38.445786075378315,63.14907588666436,2.5919138436861937,58.125,68.90625,29.99121250829779,4.0,6.896551724137931,328.4586997406608,327.49018976788585,265.66467163173604,921.6135611402827,1.2327201345832397,0.01646090534979424,0.06584362139917696,0.18106995884773663,55.211583193490554,44.78841680650944,21.189650405788587,50.15863440729076
177,950.9248681984246,37.35876356372052,63.19485314829074,2.507012441790123,58.125,68.50713858940522,29.86594416390709,4.0,6.896551724137931,196.53003161192035,747.3982765643591,145.5034024962493,1089.4317106725287,5.136637795007062,0.0326530612244898,0.0489795918367347,0.1795918367346939,83.70443175229232,16.29556824770769,21.11617099451143,48.82645127283489
178,948.0202539757736,39.792005145760996,63.402482021448684,2.687763646353785,58.125,68.90625,29.939104126467424,5.0,8.928571428571429,172.093192213832,763.5562070094072,275.63170370472636,1211.2811029279655,2.7702045764204817,0.03278688524590164,0.04918032786885246,0.21311475409836067,73.47624035432521,26.523759645674794,21.132655084924078,51.409638069684824
179,943.0652083331786,36.73875861642252,63.71974754025045,2.5031219945604106,58.9824193778825,68.90625,27.238079394716394,5.0,8.771929824561404,336.9803371350075,375.55486183519616,453.4184315233132,1165.9536304935168,0.8282743614402152,0.03225806451612903,0.04838709677419355,0.22580645161290322,45.303614102412155,54.69638589758784,19.2600349983718,48.408995196989174
180,929.2884856411533,38.919745727516855,64.67884744806777,2.708910119657437,58.9824193778825,69.98610007697675,28.68209526579401,5.0,8.771929824561404,125.248900940007,310.09239392601023,383.0923201895399,818.4336150555571,0.8094456024923391,0.032520325203252036,0.0813008130081301,0.21138211382113822,44.73445354629091,55.265546453709085,20.267931054684063,51.16929609050506
181,930.2208295907266,43.26284349506118,64.64167209357126,3.03286098173989,58.9824193778825,71.23109344880712,30.223015720030112,6.0,10.526315789473685,93.71473187809869,464.65629251705354,229.44248329962437,787.8135076947767,2.025153693574124,0.031746031746031744,0.07936507936507936,0.20634920634920634,66.9438282714644,33.056171728535595,21.280996461308725,56.02448843464084
182,921.7299201261995,37.80762745292748,65.20545309512026,2.696067313136026,60.06361304109445,71.23109344880712,30.37148003868442,6.0,10.714285714285714,153.69050388433135,1149.7327120692291,128.19729882552483,1431.6205147790852,8.968462850640895,0.016129032258064516,0.06451612903225806,0.2096774193548387,89.9683630768037,10.031636923196317,21.463734263257603,49.112223286829135
183,923.032206207565,37.47675396255104,65.11146466355174,2.6708571592036,60.06361304109445,71.23109344880712,29.94646516271978,5.0,8.928571428571429,89.76337578518402,1962.9112305797887,114.95430183960492,2167.6289082045773,17.075578722739994,0.016194331983805668,0.08097165991902834,0.21052631578947367,94.46767367541074,5.532326324589261,21.17516439026571,49.022973112292725
184,928.074594714068,41.002725380492606,64.77599093060343,2.8575589758356705,57.68915871609666,71.23109344880712,29.3037260211279,4.0,6.896551724137931,167.8436226043703,1430.4127949474714,218.6266444949024,1816.883062046744,6.542719430434398,0.01593625498007968,0.0796812749003984,0.20717131474103584,86.74218219008567,13.257817809914325,20.720862617242425,54.64190833784727
185,931.3111864792637,42.63224645942741,64.56093875686652,2.968072927548909,57.68915871609666,71.23109344880712,29.511494845741638,4.0,6.896551724137931,269.5685654269887,521.1929913732819,287.768690930293,1078.5302477305636,1.8111525256218086,0.01639344262295082,0.04918032786885246,0.22950819672131148,64.42740154133733,35.57259845866266,20.867759287678528,57.11760736881708
186,959.2741166743104,67.46044532720347,62.836768260330956,4.135207051796787,52.167539422594025,71.23109344880712,34.193468143679745,7.0,12.280701754385966,737.7620905160902,620.3598667701331,224.4451254147523,1582.5670827009756,2.763971218460502,0.016260162601626018,0.04878048780487805,0.1626016260162602,73.43231544663594,26.56768455336407,24.149809125617786,92.74804740404565
187,970.6149329744194,66.77614570826609,62.08808005270317,3.9577723143842376,52.167539422594025,67.27580307125594,36.79751210815301,10.0,17.857142857142858,775.3408043723807,1348.6461582881366,185.8924312932488,2309.879393953766,7.254981544464401,0.016597510373443983,0.049792531120331954,0.16597510373443983,87.88610253561892,12.11389746438109,25.890822933932707,89.43453229285927
188,997.151383208466,70.27129608531897,60.46387241061112,4.158524171403971,52.167539422594025,67.27580307125594,33.95500751671245,9.0,15.254237288135593,933.3791919755373,3063.731231481507,240.03470862729966,4237.145132084344,12.76370092059704,0.01646090534979424,0.04938271604938272,0.16460905349794241,92.73451228147857,7.265487718521437,23.973293668173127,96.76213751588593
189,1021.9928892941441,65.31496285220967,58.951592611567136,3.8047923921814673,52.167539422594025,66.1778832595441,31.2174417901306,8.0,13.114754098360656,343.26607840226393,3690.2807627319103,280.9016779084799,4314.448519042654,13.137268492693854,0.03305785123966942,0.06611570247933884,0.18181818181818182,92.92649778479625,7.073502215203738,22.01463097427056,89.32066829875872
190,1039.7081708700896,58.013690335097024,57.89455805461189,3.339805633188353,52.167539422594025,65.625,28.946920756518445,7.0,11.290322580645162,551.3429063033326,1686.494492618047,213.7451300462196,2451.582528967599,7.890212479944523,0.03347280334728033,0.06694560669456066,0.16736401673640167,88.75167492052744,11.248325079472568,20.457140977254767,79.48503577590525
191,1036.3806799396361,65.10437035909234,58.134901110954715,3.845592762376223,52.167539422594025,67.13317401648956,29.35372194470805,7.0,11.475409836065573,800.2563339018021,471.06444944285045,47.961205255722,1319.2819886003747,9.821780894187397,0.01680672268907563,0.06722689075630252,0.15126050420168066,90.75937676268126,9.240623237318738,20.755917119303525,88.93506361677325
192,1040.0361409450554,78.47246955935823,58.01334249150376,4.313354690510109,46.837410773545656,67.13317401648956,27.389396472668228,6.0,9.67741935483871,1248.174028475149,706.2822500918103,1.4135337506703716,1955.8698123176298,499.6571533978968,0.017241379310344827,0.06896551724137931,0.15517241379310345,99.80026251633215,0.19973748366784064,19.012657347050357,105.49200215970367
193,1034.6806947175805,84.23662684537821,58.36730481394706,4.679949538447899,46.837410773545656,67.13317401648956,35.54749601103529,6.0,9.523809523809524,2593.195314316113,1727.4020404003563,15.228715075709992,4335.82606979218,113.43058372374345,0.03375527426160337,0.050632911392405056,0.15189873417721517,99.12610775243952,0.8738922475604814,25.057813706431137,116.35275576347699
194,1021.2362229348616,88.40933849494876,59.17397183445391,4.900395377079157,46.837410773545656,67.13317401648956,37.37549754679074,7.0,11.475409836065573,2530.1160818715507,5325.9710704999425,211.05191057143875,8067.139062942932,25.23536060905338,0.03361344537815126,0.05042016806722689,0.15126050420168066,96.18835046751782,3.811649532482191,26.428423216726472,122.94104451551034
195,1014.6635836907619,85.89403267953746,59.53111228379728,4.735284155112662,46.837410773545656,67.13317401648956,37.42556834063342,7.0,11.475409836065573,3131.833809550825,6933.159784281943,440.58593855708045,10505.57953238985,15.736225733821762,0.034782608695652174,0.052173913043478265,0.1565217391304348,94.0249371877249,5.975062812275103,26.46076298827827,119.4980398121859
196,999.8673068902879,83.78891782362645,60.38767552268894,4.561091366717704,46.837410773545656,67.13317401648956,38.19745866836073,7.0,11.666666666666666,1917.8845018077784,3428.9047547623136,197.62189832262973,5544.411154892722,17.35083401113989,0.03319502074688797,0.049792531120331954,0.16597510373443983,94.5506563930939,5.44934360690609,27.00904545615271,116.3370686301652
197,1009.3595417543165,77.64868954393965,59.75972316464389,4.134994613042504,46.837410773545656,67.03125,38.093806334895326,7.0,11.475409836065573,808.8456530732414,783.4987565328715,181.20003237276435,1773.5444419788773,4.323943799971621,0.03389830508474576,0.05084745762711865,0.1694915254237288,81.21693170379953,18.78306829620047,26.9254758111383,107.18083984423627
198,996.2372694314303,49.78772331418803,60.37396350250377,2.9569925238194124,51.05679183534456,67.03125,35.71390189402826,5.0,8.19672131147541,471.20664015166005,331.6295135841705,187.2884700347148,990.1246237705453,1.770688358566341,0.03404255319148936,0.05106382978723405,0.1702127659574468,63.90788603459402,36.09211396540598,25.160666322538,62.16406375063664
199,1008.1225754135577,37.452306155340146,59.59956921520359,2.235726145745562,55.3125,64.21874999999999,25.091117118796955,3.0,4.918032786885246,298.1016483417991,105.27864313053966,309.0895955856328,712.4698870579716,0.3406088222771393,0.017167381974248927,0.10300429184549356,0.22317596566523606,25.407025272188342,74.59297472781167,17.694621613428133,49.29260342251096
200,1025.9045219794373,41.72559131975392,58.58072783153704,2.3576445971876465,52.94070339818813,63.19154068896099,24.27534462704774,2.0,3.1746031746031744,491.8097817653693,96.76010603679404,412.4055516300115,1000.9754394321748,0.23462367481319,0.017467248908296942,0.10480349344978165,0.2445414847161572,19.00365913918593,80.99634086081407,17.143654320172008,55.12166669495271
201,1039.7386835461243,54.393888387553005,57.86315682857875,2.9926188222903978,52.380594825003335,63.19154068896099,24.839373863053698,2.0,3.1746031746031744,703.2062350939605,121.1388338728798,325.36205835669375,1149.707127323534,0.3723200992909737,0.017543859649122806,0.12280701754385964,0.24561403508771928,27.130703651672636,72.86929634832737,17.551704610453644,75.34642912799181
202,1047.6744693996852,50.198211953659644,57.40083951811127,2.740741885387363,52.380594825003335,62.8125,23.962818233737313,2.0,3.1746031746031744,1307.742729728296,130.84354070775063,199.78447196664592,1638.3707424026925,0.6549234753819857,0.017857142857142856,0.10714285714285714,0.17857142857142855,39.57424528229728,60.42575471770272,16.94225819675367,68.66647065721868
203,1055.5591059050882,48.853088674002635,56.96584054179719,2.6822862034675587,52.380594825003335,64.21875000000001,25.33531123157225,3.0,4.615384615384615,1808.778201722581,186.87232952440144,148.7093027534818,2144.359834000464,1.2566283753894212,0.01818181818181818,0.09090909090909091,0.19999999999999998,55.68610184530573,44.313898154694265,17.885056121480332,66.76271540627266
204,1074.2281868069701,50.10926380303131,55.97924228281692,2.688909624853087,52.03124999999999,64.21875000000001,19.419020647593424,1.0,1.5151515151515151,1544.1597624750536,415.70374715199824,133.01975100249368,2092.8832606295455,3.1251279905358205,0.0365296803652968,0.0547945205479452,0.2009132420091324,75.7583279283873,24.241672071612697,13.699480418730678,69.47843301369353
205,1079.0042949683116,46.66961624503142,55.715187920423936,2.511023473359868,52.03124999999999,64.21875000000001,18.420231010796254,1.0,1.4705882352941178,2176.452515843075,642.3583458132712,179.1529798647576,2997.963841521104,3.585529787437456,0.03827751196172249,0.057416267942583726,0.21052631578947367,78.19226902113675,21.807730978863244,13.020440178239877,65.13435606954613
206,1091.9255564656899,58.011305861934055,55.107443923725064,2.9962220606147345,49.13323039025146,64.21875000000001,16.785725576372414,1.0,1.492537313432836,1548.6530143382195,565.8198603312088,114.09193299247887,2228.5648076619073,4.959332754652413,0.037914691943127965,0.05687203791469195,0.18957345971563982,83.21959787831437,16.780402121685626,11.812634061271865,80.18278619792646
207,1094.1073861503764,67.08390829899291,55.04776165671431,3.4124764648960304,49.13323039025146,64.21875000000001,19.800455687454257,1.0,1.5151515151515151,599.6479040814094,342.94869992591515,17.73184865633115,960.3284526636556,19.340831662437264,0.037914691943127965,0.05687203791469195,0.15165876777251186,95.08378016889709,4.916219831102908,13.971892656035804,93.27947978180336
208,1082.1330218815363,80.4750906280491,55.76277483495049,4.2751389321057784,49.13323039025146,65.32590127910156,22.506455930637756,2.0,2.985074626865672,2879.0714782132636,418.83522971788875,0.4074364634376138,3298.31414439459,1027.9767946739512,0.03755868544600939,0.056338028169014086,0.15023474178403756,99.90281607853782,0.097183921462181,15.912576198731275,112.3480139066053
209,1066.544277307781,92.75243095272043,56.690516685096426,5.005917517281514,49.13323039025146,65.87965683926403,20.396715948663175,1.0,1.5151515151515151,7423.5018856927945,1024.980088991562,20.74320104256478,8469.225175726922,49.412821429456145,0.017391304347826087,0.052173913043478265,0.1565217391304348,98.0163776363929,1.983622363607091,14.311332892227043,130.53647134663117
210,1038.8843986263796,97.5314618833791,58.249384396908084,5.289133258617217,49.13323039025146,66.09375,22.945276495604215,2.0,3.125,7916.4605225809,1489.5916785201532,129.38816937273558,9535.440370473789,11.512580213025544,0.016877637130801686,0.050632911392405056,0.21940928270042193,92.00804324148105,7.991956758518952,16.154778276483814,137.48698799755746
211,1015.4073998784887,105.4159014176737,59.68349355884182,5.732885409532721,49.13323039025146,67.03125,25.251641168153352,2.0,3.225806451612903,3360.3064608359127,857.6655634947557,214.7368580538183,4432.708882384487,3.9940305137546703,0.01606425702811245,0.0642570281124498,0.20883534136546184,79.97609351312978,20.023906486870228,17.695044176866002,148.02849987539685
212,973.3479935196884,83.08569203402399,62.03629146615728,4.62556593461936,49.14846141205297,67.62961827506183,29.069060174400587,4.0,6.666666666666667,246.21318861044114,213.39324597696327,208.0119298421055,667.6183644295099,1.0258702283996044,0.0,0.0967741935483871,0.24193548387096775,50.638496682485965,49.36150331751404,20.20975267609411,111.815167543821
213,934.155855560957,34.91334770872475,64.31938130553525,2.4184494445007765,59.173479549425224,69.84375,30.05118853005511,6.0,10.0,160.92279104998528,85.23794503663409,264.6678022000993,510.82853828671864,0.3220563450789184,0.01593625498007968,0.09561752988047809,0.23904382470119523,24.36025864386995,75.63974135613005,21.22998115412561,44.10226155969141
214,927.7865049061413,29.397469972473548,64.73619062848431,2.088751180204043,61.406250000000014,69.84375,27.56347549597741,5.0,8.333333333333334,266.420008822619,101.71177472023012,404.3956909006165,772.5274744434656,0.251515476076689,0.016260162601626018,0.0813008130081301,0.22764227642276424,20.09687302191035,79.90312697808965,19.488708133181355,36.935072009743365
215,927.1821161488598,30.21055107520901,64.78171682122382,2.1351265859497075,60.46875,69.84375,29.607762683446417,6.0,10.169491525423728,507.66494617261174,181.15025364769429,427.09803673254686,1115.9132365528528,0.4241420893281521,0.016,0.08,0.24,29.78228735085302,70.21771264914699,20.935849769226973,37.48788057745859
216,926.1704913009462,31.014307375474477,64.85593899192074,2.183411736676859,60.46875,69.84375,31.44732707418296,7.0,11.864406779661017,490.26640171659596,179.13512576202743,342.00600865618594,1011.4075361348093,0.5237777150930397,0.016,0.08,0.224,34.37363008429734,65.62636991570267,22.22840694683539,37.64727915866171
217,933.3449095482512,35.55015268082885,64.3788275147182,2.4679862621296973,60.0,69.84375,32.07314205935508,8.0,13.559322033898304,269.6684591849512,172.32945928133682,316.0552174873903,758.0531359536783,0.5452511135596497,0.016260162601626018,0.04878048780487805,0.22764227642276424,35.285599134991465,64.71440086500854,22.673310791202585,45.092780582793054
218,939.9461629648921,34.69764134573653,63.92214538091619,2.4054225160729525,60.0,69.84375,29.503707549620206,6.0,10.0,69.83500912764256,252.05189783813975,334.28344155842586,656.1703485242082,0.7540065300963652,0.03319502074688797,0.13278008298755187,0.23236514522821577,42.987669496016075,57.012330503983925,20.818802180866296,43.42174764035859
219,959.8219707646655,41.10983868893748,62.621172654903305,2.5638309286971834,55.32616378941914,67.03125,27.20905938550106,5.0,8.333333333333334,183.13495263936625,254.7321225018943,297.46639829299994,735.3334734342604,0.8563391494423077,0.01652892561983471,0.1487603305785124,0.1652892561983471,46.13053329719271,53.869466702807294,19.1058231489341,52.28401259169137
220,973.0582219740695,44.6983383949338,61.78676738413856,2.736777255420257,55.32616378941914,66.65433854354902,27.116870819314123,5.0,8.620689655172415,346.0439501208114,194.534354195151,232.3364315647445,772.914735880707,0.8372959543408529,0.016260162601626018,0.04878048780487805,0.2601626016260163,45.57218734208995,54.427812657910046,19.161046101084217,60.543033570882
221,975.4933965845711,47.60827329184802,61.6499774863027,2.927346040078351,55.32616378941914,66.65433854354902,25.41504986033608,3.0,5.172413793103448,1239.5212075072768,376.06385914380843,104.61482389682014,1720.1998905479054,3.594747332507236,0.03361344537815126,0.05042016806722689,0.20168067226890757,78.23601761678752,21.763982383212475,17.89933611506918,64.36138117585267
222,976.3149789101269,46.05651453406019,61.58803424723491,2.811696197856581,55.32616378941914,66.00381269709482,24.04449774781292,3.0,5.084745762711864,1698.5663516164084,824.9550980310179,17.176716443491685,2540.698166090918,48.02752032060214,0.032520325203252036,0.04878048780487805,0.1626016260162602,97.96032923251926,2.039670767480737,16.99628107676789,63.36277890877477
223,973.8603939065457,46.64152097711105,61.746533302712265,2.84458266757583,55.32616378941914,66.00381269709482,22.817661966025,3.0,5.172413793103448,1022.3757824272813,1301.9841451818681,20.69250017760354,2345.052427786753,62.92058156370424,0.03319502074688797,0.049792531120331954,0.16597510373443983,98.43555866430378,1.5644413356962101,16.134523506998647,64.5484043738534
224,972.2494992785763,47.48244522536448,61.854076036797174,2.9014845814124226,55.32616378941914,66.00381269709482,23.294817483363175,3.0,5.172413793103448,293.4084567470662,1275.8547247612648,72.71565028698541,1641.9788317953164,17.545806435421735,0.016194331983805668,0.06477732793522267,0.16194331983805668,94.60794544857299,5.392054551427005,16.471604373662256,65.69584206914406
225,994.5862136603906,86.30801177262897,60.72690951048778,4.63559680886379,47.10466443206743,66.00381269709482,24.60518611893891,2.0,3.3333333333333335,880.2014174969623,462.28679455928284,143.50476080402797,1485.992972860273,3.2214038891057273,0.0,0.04918032786885246,0.19672131147540983,76.31119821108038,23.68880178891962,17.235967484763663,115.74340968829256
226,996.9428855167556,98.37174172635468,60.69951316726153,5.24485802032327,47.10466443206743,66.56250000000001,31.69148846094928,6.0,9.836065573770492,2802.2153403000557,404.2865216618824,176.66141904679748,3383.163281008736,2.288482249510218,0.0163265306122449,0.0489795918367347,0.27755102040816326,69.59083479471605,30.409165205283944,22.409013768901634,137.85111311397935
227,995.3361787265075,99.0542899558206,60.801614285451954,5.247182141279546,47.10466443206743,66.56250000000001,31.09410433497558,6.0,10.169491525423728,7340.937746698183,2433.6376519736127,106.94671521081415,9881.52211388261,22.755609157106026,0.03292181069958848,0.04938271604938272,0.23045267489711935,95.79046787061291,4.209532129387091,21.985357079372132,139.5509338146133
228,999.8474788029397,97.08014350907023,60.504300110310965,5.117256127998912,47.10466443206743,66.56250000000001,30.837269861417795,6.0,10.169491525423728,9472.533507900422,4969.754953587146,38.22359648474822,14480.512057972315,130.017983932259,0.03319502074688797,0.049792531120331954,0.1825726141078838,99.23674600235259,0.7632539976474038,21.803386704249192,136.50532504604547
229,998.8206137475707,96.85069271762457,60.56515003104884,5.1159088490599665,47.10466443206743,66.56250000000001,32.388765491202584,8.0,13.333333333333334,5078.524799903926,3328.961909536915,62.31782727987343,8469.804536720714,53.41909458085453,0.032520325203252036,0.04878048780487805,0.1626016260162602,98.1624097061846,1.8375902938153905,22.902235303113137,135.8257765142266
230,998.9518962123478,97.84935378024409,60.56807344683303,5.175344913508205,47.10466443206743,66.56250000000001,32.791105894760925,9.0,15.254237288135593,1359.8352019985537,561.1447565404312,154.54804727535165,2075.5280058143367,3.6308757466256663,0.016597510373443983,0.049792531120331954,0.23236514522821577,78.40581231900553,21.594187680994462,23.18583964362886,137.55094038344646
231,963.4936616396577,62.83637927992307,62.496789460772604,3.442860303797639,47.78576787070863,66.56250000000001,33.0544702166154,9.0,15.789473684210526,90.34603960257606,63.53636952754547,328.4673636238343,482.3497727539558,0.19343282336052195,0.032520325203252036,0.04878048780487805,0.24390243902439027,16.20810317717298,83.79189682282701,22.987685326444886,76.97687063970152
232,946.7274476470963,25.80286347285581,63.42290035603436,1.7136005985437672,59.53125000000001,66.4477007996157,26.076359952442278,5.0,8.928571428571429,62.48093809107684,44.149399876896325,376.26236330107145,482.8927012690446,0.11733674207954087,0.016,0.064,0.24,10.50146635840137,89.49853364159863,18.438662104380086,31.54842882961605
233,944.9344032843876,26.602684793355355,63.54658177978129,1.7807842840893446,59.53125000000001,67.0489026410849,27.5866841454518,5.0,8.771929824561404,33.24269277240146,52.14216783010373,333.0548521945602,418.43971279706545,0.15655729825441458,0.016194331983805668,0.048582995951417005,0.22672064777327935,13.536493046276705,86.4635069537233,19.49877672135017,31.930827048141794
234,936.9839623746172,23.477401526374052,64.07511825559881,1.5918319059133847,60.46875,67.0489026410849,27.848042922556754,4.0,7.142857142857143,99.65505961928952,80.87697459359522,268.51590062955313,449.0479348424379,0.30119994534392136,0.0321285140562249,0.048192771084337345,0.20883534136546184,23.147860282480334,76.85213971751968,19.67902209509123,26.597487079160267
235,932.0129564150996,22.292598144204288,64.41358760300614,1.5392323889825628,61.40625,68.4375,25.06374225423632,1.0,1.7857142857142858,52.30178986613081,136.84672608976436,210.5617094723048,399.7102254282,0.6499126856099343,0.032,0.048,0.20800000000000002,39.390732084084604,60.60926791591541,17.716723488816932,25.669492853480854
236,927.1673628910496,21.83332378523252,64.74900424679763,1.5195323737795567,61.40625,68.4375,24.13259907443344,0.0,0.0,15.18783762645944,127.41803703036048,231.41588160020268,374.0217562570226,0.5506019558782472,0.032,0.048,0.224,35.50891663659686,64.49108336340313,17.064321425193402,26.067295730576255
237,945.9037070689955,52.653652656082016,63.613602699676555,3.278876999469008,54.84375,68.4375,23.604649950769936,0.0,0.0,289.4072270481413,148.03529711708595,232.7984957024995,670.2410198677268,0.6358945605312883,0.016,0.048,0.224,38.87136591032916,61.128634089670825,16.682898537966206,72.80137706966497
238,947.5956607482952,52.01755902473979,63.49540662191372,3.235023462644053,54.84375,68.4375,24.251187864751454,0.0,0.0,846.709782727399,631.8199450778064,148.37416119837337,1626.9038890035786,4.258288235463555,0.01606425702811245,0.048192771084337345,0.24096385542168672,80.9824042498149,19.017595750185098,17.1403864497533,72.06435871912569
239,951.0092199069624,50.59196471518349,63.257585532048175,3.139841410006328,54.84375,68.4375,22.68233279082738,0.0,0.0,1764.8147669255914,1535.067376802073,56.72480045302361,3356.6069441806885,27.061661998676087,0.03225806451612903,0.04838709677419355,0.16129032258064516,96.43641919695568,3.5635808030443052,16.037826358234145,70.32168303367001
240,956.9112284046763,49.97359093887109,62.86345843420677,3.1030614504652747,54.84375,68.4375,21.982944142981303,0.0,0.0,1397.747453935635,1455.484274741755,40.99127645499383,2894.2230051323836,35.50717129630732,0.03278688524590164,0.04918032786885246,0.1639344262295082,97.26081215144393,2.7391878485560714,15.501429975026188,68.7336471820148
241,963.7076437256381,47.366949582538396,62.402751090436226,2.9193404648310244,54.84375,67.15305566233435,20.282391687808342,0.0,0.0,536.312640372759,459.9539870721409,92.08140916582629,1088.3480366107262,4.9950798020893155,0.03319502074688797,0.049792531120331954,0.24896265560165975,83.31965490014838,16.680345099851632,14.300588392895804,65.4884511769312
242,975.8005180850917,42.859066696492064,61.60179114329124,2.595489894690746,54.84375,66.09375,20.018487818970186,0.0,0.0,371.3458494089116,162.93663649139776,135.1139863135548,669.3964722138642,1.2059198380342049,0.01652892561983471,0.09917355371900827,0.23140495867768596,54.6674370138878,45.332562986112194,14.152150631085437,59.41529664018113
243,975.1496047053653,40.100950546460304,61.630370347601605,2.467547596330339,55.78125,66.09375,18.799612702950114,0.0,0.0,156.98585934043194,161.2914037927425,140.67467534038698,458.9519384735614,1.1465560762978109,0.016877637130801686,0.08438818565400844,0.2362869198312236,53.41374907266754,46.58625092733245,13.22842497231431,54.02464169810917
244,1000.8712817358951,53.608303582882144,60.11403241630118,3.1090570166742855,51.94461807175511,65.22874938634111,18.583097548098593,0.0,0.0,600.2338422486021,149.32979678856842,119.30670662829336,868.8703456654638,1.2516462905460433,0.017391304347826087,0.06956521739130435,0.24347826086956523,55.5880510984924,44.41194890150759,12.844460640180037,71.86327947973794
245,1024.3428680923466,67.17163164943516,58.81410740964668,3.669424882574622,50.060789829812464,64.43901782649286,21.889640039131994,1.0,1.639344262295082,1224.3471106268278,174.13242876867247,134.42595359309914,1532.9054929885995,1.2953780435566997,0.017777777777777778,0.07111111111111111,0.24888888888888888,56.434191622287415,43.56580837771259,15.458756441125768,93.89166192808118
246,1028.8783555779016,63.39121769140663,58.52647444851602,3.4263350070397007,50.060789829812464,64.43901782649286,21.677766748737387,1.0,1.6129032258064515,2268.142206166043,762.9876702712437,92.72760721017904,3123.8574836474654,8.228268724133407,0.01762114537444934,0.07048458149779736,0.24669603524229078,89.16373124912543,10.836268750874572,15.320467390299171,87.97859012523342
247,1032.9562015427068,60.29163100027647,58.273362170559686,3.222917673194228,50.060789829812464,64.21875,24.10333149787481,2.0,3.225806451612903,3170.6554995584656,1668.3147720706174,50.0054241392661,4888.975695768349,33.362676165376136,0.01762114537444934,0.052863436123348026,0.15859030837004406,97.08986577416924,2.9101342258307605,17.038056960408404,83.65416279599239
248,1026.6604649896012,67.12718546169712,58.68216601709579,3.6860224552782426,50.060789829812464,64.53357698980938,23.07870626915837,2.0,3.278688524590164,2471.787701339825,1229.4249086874145,92.62710552708366,3793.8397155543234,13.272841698890584,0.01762114537444934,0.052863436123348026,0.2643171806167401,92.9936867437006,7.006313256299404,16.316155929004836,94.00240690928123
249,1024.9256587962661,67.11881117272458,58.781073243197746,3.680179523381863,50.060789829812464,64.53357698980938,22.036471083777254,2.0,3.3333333333333335,1410.955508596821,640.0940948569151,124.2958547304072,2175.3454581841434,5.14976220442149,0.017316017316017316,0.12121212121212122,0.27705627705627706,83.73920865946604,16.260791340533956,15.577240196126917,94.05038400051704
250,1013.8556094213378,61.227633028816435,59.38152322736545,3.34958344819836,50.060789829812464,64.53357698980938,21.224752893375737,2.0,3.4482758620689653,1206.8935319638654,545.7101701354391,70.04016095051848,1822.6438630498228,7.791389436140343,0.017167381974248927,0.05150214592274678,0.27467811158798283,88.62523373280314,11.374766267196861,14.803373779772691,82.9657996084795
251,992.4536011023403,35.92533547492329,60.535673792316494,2.196113673917186,56.71875,64.53357698980938,18.796515529816695,1.0,1.7241379310344827,1052.9987920602155,305.1173759670191,10.910213496881463,1369.026381524116,27.966214964925552,0.03361344537815126,0.05042016806722689,0.1680672268907563,96.54770220682656,3.4522977931734418,13.241513600278981,48.73085843407099
252,986.2761786007853,37.46037610335847,60.92222251405035,2.3008181075615144,56.71875,64.53357698980938,21.010591697187603,2.0,3.4482758620689653,1344.0170529879003,158.8026964695865,18.714654814769926,1521.5344042722568,8.48547291100751,0.03278688524590164,0.04918032786885246,0.22950819672131148,89.45756306109378,10.542436938906231,14.855543247819641,51.31247633973198
253,983.5469619517261,36.8993118986827,61.088468502310434,2.2610179215400454,56.71875,64.53357698980938,18.322120394232535,1.0,1.7857142857142858,853.4120133762592,140.980910572207,96.05615755401631,1090.4490815024826,1.4676925890245782,0.016877637130801686,0.050632911392405056,0.21940928270042193,59.47631384688493,40.52368615311509,12.954271934465215,50.65728294757821
254,983.1711640558508,36.79524150555472,61.111447411191506,2.2576866608609345,56.71875,65.62499999999999,20.568280425881408,1.0,1.7543859649122806,321.02073243687084,133.67460537909872,203.32077449723354,658.016112313203,0.657456699688686,0.016597510373443983,0.11618257261410789,0.23236514522821577,39.66659882048042,60.33340117951958,14.53545567185319,50.22159799205986
255,982.4066375916626,48.998529473574976,61.21678621793255,2.8597442111773557,52.392994836607,65.625,28.374703880263706,5.0,8.771929824561404,186.6250571938809,118.94939055597558,205.79761812020536,511.3720658700619,0.5779920663926141,0.0,0.05042016806722689,0.23529411764705882,36.62832524335431,63.371674756645696,20.03685772892123,63.56766793382742
256,972.8218106791456,49.15772743328282,61.82058953264835,2.863638324069162,52.392994836607,66.09375,30.732406087100347,7.0,12.280701754385966,433.9256687161758,364.8266364161791,215.2809605309103,1014.0332656632652,1.69465351472081,0.03278688524590164,0.04918032786885246,0.24590163934426232,62.8894774583437,37.1105225416563,21.720151919767968,66.09605506407286
257,976.2671118085707,58.41257385830486,61.66282203533679,3.420684554109023,52.392994836607,66.09375,31.79670727404236,7.0,12.280701754385966,1090.753851397862,1881.7271300740476,296.34435038036605,3268.8253318522757,6.349799237470866,0.03278688524590164,0.04918032786885246,0.26229508196721313,86.39418618536159,13.605813814638415,22.38561526449932,77.80891918375205
258,1003.1580071681703,79.44583800179298,60.1687120805003,4.5229944845424885,51.98481488537213,66.09375,30.416915434403773,6.0,10.344827586206897,999.1136751871235,2815.4031786413284,198.51328193017747,4013.0301357586295,14.182442359859742,0.032388663967611336,0.048582995951417005,0.2591093117408907,93.41344444920232,6.586555550797679,21.508007134368004,111.22594183396993
259,1001.3681611157668,81.66682461335017,60.299853532404995,4.690226218145834,51.98481488537213,66.3371101111809,31.423101379507795,6.0,10.169491525423728,2229.475531176203,2029.6759032227274,69.41565291104025,4328.567087309971,29.23945562860097,0.032520325203252036,0.04878048780487805,0.1951219512195122,96.69306216261981,3.306937837380193,22.188767202433855,114.00036690376587
260,1023.8303681140193,76.46923935081855,58.93360005232916,4.430104720007267,51.98481488537213,66.3371101111809,28.33949668268777,6.0,9.23076923076923,2858.283609645097,1926.281054757019,29.234825734880772,4813.799490136997,65.88994482901012,0.034482758620689655,0.05172413793103448,0.1724137931034483,98.50500698938191,1.4949930106180935,19.99897045732727,106.33649454879803
261,1026.8243858145627,69.62998186967008,58.70647131518186,4.0493768711681435,51.98481488537213,66.3371101111809,20.901627911495147,1.0,1.492537313432836,1651.2098405294225,2103.5754757600957,11.640248183653716,3766.4255644731716,180.71568943986313,0.035555555555555556,0.05333333333333333,0.17777777777777778,99.44968978568528,0.5503102143147302,14.775967115130593,97.41658063607808
262,1050.5385231631765,72.15344191952333,57.392325238567906,4.072214526525448,51.09062107978824,66.3371101111809,20.35349427286831,0.0,0.0,1457.6142459456983,1337.2078148298203,10.697194634460029,2805.5192554099785,125.00546737012041,0.018518518518518517,0.05555555555555555,0.18518518518518517,99.20638364281238,0.7936163571876321,14.291609228497494,100.56090591022834
263,1065.455272299496,62.38997601233687,56.51526886238463,3.4503398059962587,51.09062107978824,66.3371101111809,21.06654861218879,0.0,0.0,1084.2772021328847,717.910531378114,18.346954903977604,1820.5346884149762,39.1296831073843,0.018604651162790697,0.05581395348837209,0.18604651162790697,97.50807900146117,2.4919209985388324,14.880204293148848,87.11280007696425
264,1049.3475053512132,61.99838662692673,57.38414432875345,3.493583025834284,51.09062107978824,66.3371101111809,22.011164494807055,2.0,2.898550724637681,2060.487644190007,639.1939185983728,133.6599479180491,2833.341510706429,4.782239770063965,0.019230769230769232,0.057692307692307696,0.25,82.7056635531228,17.294336446877185,15.5633291085052,85.42755826113427
265,1067.698004606727,53.29116448518893,56.33753076338217,2.8489804719520393,51.09062107978824,63.19273525627097,22.55422991172696,2.0,2.857142857142857,1295.7288932058464,533.1197210358833,360.79108091427526,2189.639695156005,1.4776410760623924,0.018957345971563982,0.07582938388625593,0.24644549763033177,59.63902884637121,40.36097115362878,15.945624644527046,74.14656125333298
266,1065.7089454567526,59.00507478900465,56.475296918984235,3.161986914612449,51.09062107978824,63.19273525627097,25.62452044211108,2.0,3.125,1208.7326427876355,889.7751693609537,425.16589813190694,2523.6737102804964,2.0927717233918477,0.018779342723004695,0.056338028169014086,0.24413145539906103,67.66654349441289,32.33345650558711,18.11646097442976,81.47470074100201
267,1056.6111500530424,67.54911896026873,57.02078222346056,3.6903454539252882,51.09062107978824,65.15625,25.93008048436487,2.0,3.225806451612903,745.2414590036244,1605.7704298284207,252.19374635840285,2603.2056351904475,6.36720954827482,0.037037037037037035,0.05555555555555555,0.16666666666666666,86.42633966840036,13.573660331599637,18.180090933679985,92.50398000666509
268,1026.26634150758,68.86191925159024,58.728991703917174,3.9526114069650533,51.94387444536125,67.46225574752404,28.81705980816674,5.0,8.064516129032258,2092.121322723662,1165.4392719139257,184.18971569863353,3441.7503103362214,6.327385150106792,0.035398230088495575,0.05309734513274336,0.17699115044247787,86.35256671357823,13.647433286421766,20.320896966340626,95.14442317657588
269,1003.1606664310789,66.44289107460844,60.06400252115347,3.829247422537438,51.94387444536125,67.46225574752404,26.656440455706928,5.0,8.333333333333334,2567.7317415388516,414.3795506381919,166.15964563895326,3148.270937815997,2.493863952614544,0.017937219730941704,0.07174887892376682,0.17937219730941703,71.37839327568335,28.62160672431666,18.804767749697437,92.32245854204783
270,991.510038121863,68.4297666199152,60.78686467419721,3.966231791640811,51.94387444536125,67.46225574752404,25.29239360696829,4.0,6.779661016949152,1456.4969770607036,223.93107915699267,295.30932583442205,1975.7373820521182,0.7582932862829713,0.016666666666666666,0.06666666666666667,0.21666666666666667,43.1266667625173,56.8733332374827,17.862870925426563,95.30137603944648
271,955.7430074123889,56.33943455036131,62.99306666975008,3.656510986805744,53.906249999999986,70.70801537784297,24.426780613227795,4.0,6.896551724137931,97.31998697349121,185.88896879099468,305.4918870457045,588.7008428101904,0.6084906888646241,0.03319502074688797,0.049792531120331954,0.2157676348547718,37.829916770866475,62.170083229133525,17.243918240230396,77.24838177290819
272,939.6899859913955,39.75636602216768,63.96798902599113,2.7729821270928285,59.789502233567056,70.70801537784297,25.13176257578078,5.0,8.620689655172415,252.29130620879124,455.573008160976,120.3091733646876,828.1734877344549,3.786685548740483,0.03225806451612903,0.06451612903225806,0.2096774193548387,79.10871750781438,20.891282492185624,17.767064043751787,53.11854316390681
273,934.5672757313279,42.209649106390295,64.33027104157418,2.875006452514074,55.24916960196008,70.70801537784297,29.058784847014824,7.0,11.864406779661017,291.18608315579326,1164.5623226649234,45.58099299806342,1501.3293988187802,25.549296890359575,0.03292181069958848,0.06584362139917696,0.16460905349794241,96.23342190895039,3.7665780910496127,20.480730968582282,52.9049860226921
274,957.6162254132619,73.84321064702841,63.00029649092381,4.492565588010967,51.705976984520284,70.70801537784297,26.5004572346892,4.0,6.779661016949152,833.0450425698302,1269.4372551063461,103.83388215868648,2206.3161798348624,12.225655332488676,0.01652892561983471,0.049586776859504134,0.21487603305785125,92.43893799694362,7.561062003056371,18.73769718046414,103.63127705918187
275,961.3933578219044,74.03951536257397,62.75624791145272,4.526198341723439,51.705976984520284,70.70801537784297,29.09607115488787,5.0,8.333333333333334,1854.8448471851739,1844.3330804027214,189.10613469616703,3888.284062284062,9.75289925610279,0.01646090534979424,0.04938271604938272,0.19753086419753088,90.70018256301945,9.29981743698056,20.556109143745097,103.33841487424121
276,968.3096305828584,73.92021743773233,62.30824116034156,4.538334242252269,51.705976984520284,70.70801537784297,28.234478432750382,4.0,6.779661016949152,3034.7868691628564,2807.443467087018,212.2875954969574,6054.517931746832,13.224717442933471,0.03333333333333333,0.05,0.18333333333333332,92.96998338271544,7.030016617284572,19.895013460844307,102.60480948624125
277,977.838026482733,66.50023193153827,61.62514488531033,3.9148086586857826,51.705976984520284,67.6210093707144,28.030371364938706,4.0,6.896551724137931,1770.0733436117443,1897.6860154032017,202.92668243594275,3870.686041450889,9.351584486688873,0.03305785123966942,0.049586776859504134,0.19834710743801653,90.33964316007949,9.660356839920519,19.794702856952373,92.34557848141708
278,968.6765501139779,75.84649336060158,62.302568833502455,4.652191564619342,51.705976984520284,70.78125,26.799913368380302,3.0,5.357142857142857,504.27250507186375,477.58344059451684,187.77259895836403,1169.6285446247448,2.5434139125933615,0.03292181069958848,0.06584362139917696,0.19753086419753088,71.77862861445622,28.221371385543772,18.927030244628398,105.08568423777136
279,964.9464070129334,84.7495739158251,62.65521783388224,5.464063641602739,51.705976984520284,79.00583110567483,25.624737945378477,2.0,4.081632653061225,564.8310878329319,308.5684843853474,97.99151048106854,971.3910826993477,3.148930788702979,0.018433179723502304,0.07373271889400922,0.18433179723502305,75.897404634397,24.102595365602994,17.269432755171895,113.47310703640585
280,935.5261877949364,59.170804728476384,64.4086625916313,4.341628226728764,59.53124999999999,79.00583110567483,25.550425071455955,2.0,5.128205128205129,703.2483570306517,556.0381900641576,20.56731910429683,1279.853866199106,27.035034913616556,0.022598870056497175,0.04519774011299435,0.1807909604519774,96.43303458304486,3.5669654169551333,17.607029200675164,77.41125886022043
281,922.5176950672469,61.87740409167211,65.34581921310937,4.585458886401535,59.53124999999999,79.00583110567483,22.661810968874104,1.0,3.4482758620689653,594.6400277039195,342.24680763356594,16.32315383014028,953.2099891676257,20.966953518603496,0.028368794326241134,0.0851063829787234,0.1702127659574468,95.44770739760015,4.552292602399848,15.052049089502331,81.30561490612212
282,896.9408552516334,57.57844630789372,67.17411791134992,4.384184194356083,59.53124999999999,79.00583110567483,26.857608565660815,1.0,5.0,0.0,345.1319130457971,75.15549959765565,420.28741264345274,4.592237625901737,0.0,0.042105263157894736,0.16842105263157894,82.11807031646386,17.881929683536153,16.588547591903033,70.53426499743712
283,859.4824451324363,40.23179882866422,69.970373608468,3.447082756882482,65.15819528739661,79.00583110567483,33.68365128883942,1.0,9.090909090909092,0.0,0.0,152.8398738801645,152.8398738801645,0.0,0.0,0.08163265306122448,0.24489795918367346,0.0,100.0,20.905675902206895,40.110036891644306
284,,,,,,,,,,,,,,,,,,,,,
