,section_start,section_end,nr_templates,nr_samples,biobss_ppg_a_S,biobss_ppg_t_S,biobss_ppg_t_C,biobss_ppg_DW,biobss_ppg_SW_10,biobss_ppg_SW_25,biobss_ppg_SW_33,biobss_ppg_SW_50,biobss_ppg_SW_66,biobss_ppg_SW_75,biobss_ppg_DW_10,biobss_ppg_DW_25,biobss_ppg_DW_33,biobss_ppg_DW_50,biobss_ppg_DW_66,biobss_ppg_DW_75,biobss_ppg_DW_SW_10,biobss_ppg_DW_SW_25,biobss_ppg_DW_SW_33,biobss_ppg_DW_SW_50,biobss_ppg_DW_SW_66,biobss_ppg_DW_SW_75,biobss_ppg_PR_mean,biobss_ppg_zcr,biobss_ppg_snr,biobss_ppg_p_1,biobss_ppg_f_1,biobss_ppg_p_2,biobss_ppg_f_2,biobss_ppg_p_3,biobss_ppg_f_3,biobss_ppg_pow,biobss_ppg_rpow,biobss_ppg_mean,biobss_ppg_median,biobss_ppg_std,biobss_ppg_pct_25,biobss_ppg_pct_75,biobss_ppg_mad,biobss_ppg_skewness,biobss_ppg_kurtosis,biobss_ppg_entropy,skewness,kurtosis,snr,high_sqi,raw_v,raw_md2,raw_md,raw_b,raw_s,raw_n,raw_ip,raw_d,raw_v1,poly1d_v,poly1d_md2,poly1d_md,poly1d_b,poly1d_s,poly1d_n,poly1d_ip,poly1d_d,poly1d_v1,poly2d_v,poly2d_md2,poly2d_md,poly2d_b,poly2d_s,poly2d_n,poly2d_ip,poly2d_d,poly2d_v1,bw_sbw10,bw_dbw10,bw_bw10,bw_bwr10,bw_sbw33,bw_dbw33,bw_bw33,bw_bwr33,bw_sbw50,bw_dbw50,bw_bw50,bw_bwr50,bw_sbw66,bw_dbw66,bw_bw66,bw_bwr66,bw_sbw90,bw_dbw90,bw_bw90,bw_bwr90,stat_s,stat_k,stat_mav,stat_median,stat_mad,stat_med_ad,stat_rms,stat_sd,stat_sf,stat_if,stat_cf,stat_v,stat_irq,stat_p,temp_corr,temp_centr,temp_min_p,temp_max_p,temp_mean_abs_diff,temp_mean_diff,temp_med_abs_diff,temp_med_diff,temp_dist,temp_sadif,temp_zc1d,temp_total_ene,temp_slope,temp_abs_ene,temp_ent_kde,temp_ent_gauss,spect_fsqi,spect_fsqi1,spect_fsqi2,spect_fsqi3,spect_f1,spect_mag_f1,spect_f2,spect_mag_f2,spect_f3,spect_mag_f3,spect_spectral_distance,spect_fundamental_frequency,spect_max_power_spectrum,spect_max_frequency,spect_median_frequency,spect_spectral_centroid,spect_spectral_decrease,spect_spectral_kurtosis,spect_spectral_skewness,spect_spectral_spread,spect_spectral_slope,spect_spectral_variation,spect_spectral_maxpeaks,spect_spectral_roll_off,spect_spectral_roll_on,spect_human_range_energy,spect_power_bandwidth,spect_spectral_entropy,spect_wavelet_entropy
0,1669021316.0,1669021376.0,40,7679,123.49183534380687,0.263717534930207,0.6984096127887105,0.4346920778585035,0.2146949102712232,0.18743944722552633,0.17469542525535406,0.14381210194077604,0.105952124262965,0.08390589647514876,0.38259972527969716,0.34204210791476936,0.31794939484707146,0.25590368204338604,0.1806488369786462,0.13776566815930744,2.0347931877521437,2.1291891815865602,2.133960477363214,2.070790911312225,1.8417990254088061,1.6836445327418395,85.8712564204278,0.023049876285974737,4.1690581909856403e-05,67.949625531309,1.4976101132756652,32.03815806311777,0.6185780902660356,31.481104692034886,0.6674132026554596,10696.5639024207,0.9209181632904404,0.0044489543594442675,6.694209900568204,106.71365463460837,-67.94339441220471,66.36445813226405,-5.92196055328121e-17,0.20353690974017055,4.541490775510151,12.9067027324608,0.1922918169851767,-1.273636631175993,0.00022741084245801578,0.95,0.0,3.775,9.75,14.35,25.825,80.375,80.375,80.375,82.375,0.0,4.125,9.575,14.1,25.9,80.375,80.375,80.375,82.375,0.0,1.45,9.975,16.925,25.875,81.375,81.375,81.375,83.375,0.16419788599014282,0.3801951050758362,0.544392991065979,0.4380601801657587,0.13319828510284423,0.2531967401504517,0.3863950252532959,0.5364406386711978,0.11479852199554444,0.17439775466918944,0.2891962766647339,0.668417363931345,0.09679875373840333,0.11659849882125854,0.21339725255966185,0.8375508766259541,0.05319931507110596,0.05399930477142334,0.10719861984252929,1.0001488095238096,0.1922918169851767,-1.273636631175993,0.4327734140651974,0.38290931355676916,0.2710660735805074,0.2631358026836096,0.5277014346566294,0.31009992456475216,1.2235229550993416,2.195972510233162,1.7534278817113318,0.09714534595012687,0.5527344904230913,2.3322273804220877,23.56177158500799,0.24516312110508115,0.1,1.075,0.022665915140586787,-0.00018632673355713694,0.016629424918627067,-0.012123529637563593,82.4075807182002,1.868496042966313,20.375,35.25083270272466,-0.6901486106696033,23.56177158500799,0.99631728865068,0.9831478507571347,0.21947291416396672,0.0,0.0,0.0,0.024795851463312868,109.73008629315247,0.05149907611611135,65.43716398613637,0.07343386779519581,27.39082722110112,-24767304183.44362,0.14538822303282958,4.6168392530938,7.657113079729025,0.5977071391349661,1.7743162275809403,-1.4390838908230894,79.65862994358406,7.128818340918977,3.78290498635686,-2.3752984305703807e-05,0.46572762234782417,1027.0,7.657113079729025,0.0,0.05670653430075721,1.5138884840721398,0.4249025942518805,1.8503948838359432
1,1669021326.0,1669021386.0,53,7679,105.99997962948167,0.2349969744682312,0.6754458492452448,0.4404488747770136,0.1859976053237915,0.1594524925405329,0.147725370797244,0.12263478474183516,0.09563513235612349,0.08099895715713501,0.3929040323604237,0.3498136780478738,0.32499581575393677,0.2614511793309992,0.1828158281066201,0.1385436708276922,2.173575371590069,2.271841025575639,2.2812300219130712,2.1873564330845343,1.903606194941422,1.7021976129930676,88.84918311366987,0.023440552155228545,0.0029878044312807487,71.69708777004949,1.4976101132756652,22.045602795687437,3.011498597347805,20.68025629694805,0.6185780902660356,7419.900046900151,0.9259048284292924,0.2661952285249503,5.1980279177075275,89.09392654285722,-63.28861377170189,61.956690812467045,-2.6648822489765446e-16,0.6899904330178956,5.192765219619883,12.9067027324608,0.1997159299463598,-1.2833994301413678,0.0001938841970607551,1.0,0.0,3.6037735849056602,9.547169811320755,14.18867924528302,25.849056603773583,80.30188679245283,80.30188679245283,80.30188679245283,82.30188679245283,0.0,3.981132075471698,9.452830188679245,13.867924528301886,25.90566037735849,80.30188679245283,80.30188679245283,80.30188679245283,82.30188679245283,0.0,1.2641509433962264,9.79245283018868,16.754716981132077,25.88679245283019,81.30188679245283,81.30188679245283,81.30188679245283,83.30188679245283,0.16497900800884896,0.3811271685474324,0.5461061765562814,0.43907954037351693,0.1343378930721643,0.25463823102555183,0.38897612409771615,0.5372793922231034,0.11607397727246554,0.17267702210624264,0.2887509993787082,0.6807541971430494,0.09720629566120652,0.1168286845369159,0.21403498019812242,0.8386336619031286,0.05358421577597564,0.053886098681755784,0.10747031445773143,1.0067385444743937,0.1997159299463598,-1.2833994301413678,0.41683812071655424,0.36910111775789406,0.26062412713274974,0.2546605063073678,0.5086436995330078,0.2977740355005514,1.2236681211331002,2.1858226717989715,1.7524296865682565,0.09000562433767628,0.5334355882851345,2.3026894667607665,21.90262492892385,0.24444302977545862,0.05660377358490566,1.0377358490566038,0.0217447512032353,-0.00012328783800071418,0.015930756205993397,-0.011965747023792652,82.3318768895488,1.7900860723420704,19.11320754716981,32.81962951212306,-0.6669368760766722,21.90262492892385,0.9965039767452202,0.9832552702599031,0.24464093820851893,0.0,0.0,0.0,0.03337903081599809,56.687498200309406,0.05722119568456816,58.6931648468623,0.08964653990582346,39.25099078433443,-21849561720.079094,0.14538822303282958,10.651137527950857,41.03178738926524,0.9854090672225116,6.768482219034745,-1.070336119936579,8.450903142727569,2.4806642821295513,13.078900903312837,-1.9694008394692542e-05,0.48669473578492506,1207.0,41.03178738926524,0.0,0.06790969494219896,1.5138884840721398,0.4349514788895021,1.8239754171435316
2,1669021336.0,1669021396.0,51,7679,100.41670189756351,0.23501919640435112,0.6783023781246609,0.4432831817203098,0.18613093694051105,0.15964238908555772,0.1479092068142361,0.12302063835991753,0.09599876403808594,0.0811545107099745,0.3942171467675103,0.3515510294172499,0.32666246096293133,0.26435215208265517,0.18604204919603134,0.14062041176689996,2.177874664940727,2.278002758554966,2.2876386568272533,2.201820018729652,1.9281416268916267,1.7221543888210558,88.47032391097771,0.023440552155228545,-0.0018311662880708245,54.45496818481596,1.4976101132756652,41.88706361907631,1.5301668548686145,17.995378120984228,1.5627235964615638,6537.809281872934,0.9232062326531372,-0.1524676425176994,5.31810051511178,83.26258707958605,-58.11517685407238,57.34325145677179,2.901760671107793e-15,0.7160844191100989,6.722001161885311,12.9067027324608,0.1871226018224332,-1.281477215566557,0.00019704985508185206,1.0,0.0,3.5294117647058822,9.490196078431373,14.333333333333334,25.901960784313726,80.52941176470588,80.52941176470588,80.52941176470588,82.52941176470588,0.0,3.9411764705882355,9.392156862745098,13.764705882352942,25.862745098039216,80.52941176470588,80.52941176470588,80.52941176470588,82.52941176470588,0.0,1.2352941176470589,9.666666666666666,16.705882352941178,25.96078431372549,81.52941176470588,81.52941176470588,81.52941176470588,83.52941176470588,0.1658017869089164,0.3828970310734768,0.5486988179823932,0.4391297575865213,0.13552766687729778,0.2577221720826392,0.393249838959937,0.5358286686283492,0.11686124053655886,0.17489970899095722,0.2917609495275161,0.6783495971983136,0.09819481419581993,0.117645544164321,0.21584035836014093,0.8424479605025045,0.05427381104114009,0.053803228864482806,0.1080770399056229,1.0219421101774044,0.1871226018224332,-1.281477215566557,0.39936945211832,0.35561965893389474,0.24869899129633588,0.24376873838763738,0.486723913786051,0.2843334597830757,1.221508248515426,2.176837482637815,1.748004621878017,0.082239855284319,0.5095935405535029,2.294565836059099,20.096497818866165,0.24527744383066177,0.058823529411764705,1.0392156862745099,0.020743950809873683,-0.0001434325495528973,0.015157206224231588,-0.0115233845116961,82.55681253825361,1.711377089738194,19.41176470588235,30.044584691368733,-0.6379882940294527,20.096497818866165,0.9966352530752158,0.9832093301092532,0.27062932799628786,0.0,0.0,0.0,0.02193479167908446,37.215085464208144,0.04005483697919771,49.41107473843559,0.05722119568456816,43.959952139473124,-17385971033.939064,0.16154247003647731,18.35944950697503,6.9463262115685245,0.5653986451276706,2.025950738721245,-1.4704029440610094,51.231088820633,6.511128875828991,5.870011588675439,-2.3548469994236108e-05,0.2446355585432659,1267.0,6.9463262115685245,0.0,0.06228867495908675,1.5138884840721398,0.4285428536508986,1.821953198000487
3,1669021346.0,1669021406.0,56,7679,100.78769015345134,0.23613179131840054,0.6806204506520475,0.44448865933364695,0.18723354446754026,0.1607170319289304,0.14885201614894225,0.12377368734124002,0.09662796942035803,0.08170681321219112,0.39702859621369435,0.35361342483691954,0.328984528445126,0.26750217394882375,0.18804252281617584,0.14211052991031262,2.1811149051050283,2.2769207880451714,2.2915282809358715,2.217352247852406,1.939439867248856,1.7327532018543255,88.18927008919819,0.023440552155228545,0.005420761301274906,51.65555326782837,1.4813317424791907,37.82644208088749,1.5301668548686145,17.308774426253084,1.4162182592932921,6345.608782553478,0.9204343477603163,0.4501586486778457,6.514789567807128,83.04343682721709,-58.1935550736257,58.500087027918724,1.5989293493859267e-15,0.711782014723602,6.676576614510767,12.9067027324608,0.16965001295548018,-1.2789521636767307,0.00020193379902523186,1.0,0.0,3.3392857142857144,9.410714285714286,14.196428571428571,26.160714285714285,80.75,80.75,80.75,82.75,0.0,3.857142857142857,9.375,13.714285714285714,26.071428571428573,80.75,80.75,80.75,82.75,0.0,1.1607142857142858,9.571428571428571,16.767857142857142,26.214285714285715,81.75,81.75,81.75,83.75,0.1684264029775347,0.38413791145597187,0.5525643144335065,0.4442726356583977,0.13799822330474854,0.26156806094305857,0.3995662842478071,0.5379595356371925,0.1189984679222107,0.17799770832061768,0.29699617624282837,0.6799825504643146,0.09985585723604475,0.1192841785294669,0.21914003576551164,0.8458851489313675,0.05499929189682007,0.05357073886053903,0.10857003075735909,1.0369897959183674,0.16965001295548018,-1.2789521636767307,0.41689366246295584,0.3762791416132365,0.2551438640897749,0.2517272744808456,0.5058474469205352,0.2918530594636794,1.2175258442492456,2.156181962922315,1.739434890121867,0.08705659059084082,0.5224833957936578,2.264658521269609,22.044322781508868,0.24750380978932154,0.05357142857142857,1.0357142857142858,0.02127321981847971,-6.864146798983693e-05,0.01567862212760013,-0.011946863488140632,82.77881545557429,1.7607445907043164,17.821428571428573,32.80181148836129,-0.6419790318722592,22.044322781508868,0.9967468238639086,0.9831830256358355,0.28878475932681463,0.0,0.0,0.0,0.023842164868570066,73.48439997121083,0.045776956547654526,31.930839389861273,0.06961912141622459,33.5375830693253,-17341997575.36216,0.16154247003647731,8.965786659193025,8.141740489838456,0.6138613861386137,2.378340907256533,-1.3586042069868807,39.04162148486814,5.702615503929855,6.751051499289198,-2.326206717786805e-05,0.21462299769905435,1120.0,8.141740489838456,0.0,0.06742280669710668,1.5301668548686145,0.42963171672545053,1.8197796047588026
4,1669021356.0,1669021416.0,53,7679,100.65619185548533,0.24159688949584962,0.7516903221607208,0.5100934326648712,0.19249752163887024,0.1656978666782379,0.15369802117347717,0.12829834818840027,0.10009871125221252,0.08459891080856323,0.45919408798217776,0.4165946364402771,0.3871950149536133,0.296196186542511,0.20349738001823425,0.14939807653427123,2.3473818393540324,2.477555197433876,2.481485300260455,2.3253771978412323,2.0070844342061447,1.7799796037296034,85.05708129495402,0.02187784867821331,-0.005725603347902393,53.888570364405766,1.4813317424791907,26.261379696151135,1.5301668548686145,21.697899434290562,1.4162182592932921,6068.754832133048,0.9222794026002579,-0.4713800803722444,2.6622424706790113,82.32845548843986,-54.56830133886767,53.005622991369,-1.6581489549187388e-15,0.8840129910148821,7.543416036759185,12.9067027324608,0.16440105199859922,-1.2720915836382796,0.00020065784430625967,1.0,0.0,3.30188679245283,9.433962264150944,14.339622641509434,26.20754716981132,81.24528301886792,81.24528301886792,81.24528301886792,83.24528301886792,0.0,3.849056603773585,9.377358490566039,13.849056603773585,26.09433962264151,81.24528301886792,81.24528301886792,81.24528301886792,83.24528301886792,0.0,1.1320754716981132,9.584905660377359,16.849056603773583,26.22641509433962,82.24528301886792,82.24528301886792,82.24528301886792,84.24528301886792,0.16875254433110076,0.3906364800795069,0.5593890244106077,0.4378333792687226,0.1381114293944161,0.2673173130683179,0.405428742462734,0.525216686022039,0.11909280633026699,0.18218633363831718,0.3012791399685842,0.6645261227472015,0.09931947600166753,0.12105504521783793,0.22037452121950546,0.8297114374484548,0.05464080594620615,0.053282332870195494,0.10792313881640164,1.03447888589398,0.16440105199859922,-1.2720915836382796,0.4222195840056099,0.38439635475416273,0.2549927308468602,0.25298646480852804,0.5107844766289388,0.2919487665273232,1.2133599437295577,2.1398259243342874,1.7373483200708923,0.08722217920834763,0.5206607850584379,2.2339331733405583,22.61366377646422,0.24976809702100303,0.05660377358490566,1.0377358490566038,0.0212424398371162,2.1914544868784352e-05,0.015669616384383522,-0.012024575309166513,83.27418361759655,1.7686885349295873,16.09433962264151,33.44638461391512,-0.6302232932210948,22.61366377646422,0.9967976598403527,0.9831150340073697,0.27717784339300283,0.0,0.0,0.0,0.022888478273827263,69.6187095713871,0.03910115038445491,53.003292685668505,0.056267509089825356,37.552527921190844,-17329731740.09276,0.19385096404377278,3.9018665438517344,9.369463262115683,0.6138613861386137,2.5201094795469716,-1.29189934857299,34.78028843314282,5.389025012438068,7.152286236066638,-2.3146845693269806e-05,0.23059913561389933,1103.0,9.369463262115683,0.0,0.06711049887121366,2.946385114161907,0.4323882744068769,1.8204737473834032
5,1669021366.0,1669021426.0,50,7679,95.70463188888809,0.23462384494382943,0.8999287121331514,0.6653048671893219,0.18722147016382928,0.16071434875032795,0.14853540107385435,0.12465511151214144,0.10077482195042853,0.08513323228750656,0.6174248866180876,0.5719329350030244,0.5351572890779865,0.38232343588302387,0.2266239479406556,0.15760991110730527,2.7264941887208702,2.8776808096302378,2.8837909541926225,2.6053160033070593,2.101027971766385,1.8117028493894167,66.28366001749724,0.02187784867821331,-0.0008536638763577023,48.95058332090906,1.4813317424791907,13.61935301709295,1.4162182592932921,11.41925782619686,3.011498597347805,3210.3332551612807,0.8953258232745546,-0.05231499609654939,1.8477534721595354,61.28289780722589,-35.97772453092948,43.32739475472901,1.776588165984363e-15,-0.2726898311213879,-0.47818036328954294,12.9067027324608,0.16235189056377866,-1.2717189011800492,0.00018393144236962658,1.0,0.0,3.26,9.42,14.32,26.26,81.36,81.36,81.36,83.36,0.0,3.82,9.34,13.84,26.12,81.36,81.36,81.36,83.36,0.0,1.06,9.52,16.84,26.28,82.36,82.36,82.36,84.36,0.16943781852722167,0.3919949531555176,0.5614327716827393,0.43780708572854976,0.13871821403503418,0.2689565372467041,0.4076747512817383,0.5243532130827493,0.11967845916748047,0.18319764137268066,0.3028761005401611,0.6646357853501289,0.0996787166595459,0.12127843856811524,0.22095715522766113,0.8315893617906002,0.05487929344177246,0.052959318161010745,0.1078386116027832,1.0444047619047618,0.16235189056377866,-1.2717189011800492,0.42438020192184517,0.3879267872447393,0.25466693528572004,0.2527503262790032,0.5127929573094913,0.29165421877696535,1.2123470483054843,2.1334350746854454,1.7357643904648845,0.08680484249883491,0.5197483580844579,2.2189798156564216,22.785728772213098,0.2502401431334922,0.0,1.0,0.021230893453094778,7.023481811501422e-05,0.015600864496305284,-0.012005840930061774,83.38888339650723,1.769499777823697,15.2,33.67454916478525,-0.6268363084773615,22.785728772213098,0.9968553963408269,0.9831071362842251,0.38189444040001175,0.0,0.0,0.0,0.02193479167908446,28.92884177941014,0.03814746378971211,28.57503266761776,0.05531382249508256,25.66692589750793,-9259820411.421429,0.14538822303282958,15.624373175833552,6.219385096404377,0.9531005732152161,2.0053103325815433,-2.2866778430908683,63.27846383984199,7.097670867692827,5.090800421507534,-2.3565245350012803e-05,0.5844447705967442,1156.0,6.219385096404377,0.0,0.07148453153353208,2.767323035400686,0.4295627265636903,1.821183721299108
6,1669021376.0,1669021436.0,46,7679,104.97760703188511,0.24726954373446378,0.9158669963027491,0.6685974525682854,0.19914895115476666,0.17175536444692902,0.1573313077290853,0.12654382532293146,0.10254413431340997,0.08702918254967892,0.6157496481230764,0.5690835822712291,0.5311446767864805,0.37551031690655334,0.22193653655774664,0.1568464654864687,2.6720222392171284,2.8134959662331456,2.811515762242261,2.5205198805397355,2.0209237997515506,1.7685135027381016,65.23568532716467,0.02200807396796458,0.0004893589681823478,57.71760229482085,1.465053371682716,27.431133093733784,1.4976101132756652,25.22449667126108,1.5301668548686145,3973.7452670651946,0.9094117203240664,0.03358558294207008,1.2866559757456955,68.63179204995221,-38.05410164960239,45.001346343036715,1.8950273770499872e-15,-0.17922101961814527,0.18039936582728577,12.9067027324608,0.15156410294885553,-1.2673122224465356,0.00021778049080968916,1.0,0.0,3.3260869565217392,9.565217391304348,14.782608695652174,26.5,81.65217391304348,81.65217391304348,81.65217391304348,83.65217391304348,0.0,3.782608695652174,9.5,14.869565217391305,26.369565217391305,81.65217391304348,81.65217391304348,81.65217391304348,83.65217391304348,0.0,1.2391304347826086,9.76086956521739,17.108695652173914,26.52173913043478,82.65217391304348,82.65217391304348,82.65217391304348,84.65217391304348,0.16991085591523544,0.3992992069410241,0.5692100628562595,0.43246508909621856,0.1393025543378747,0.2747790709785793,0.41408162531645404,0.5164662616263569,0.11999845504760742,0.18730193635691766,0.3073003914045251,0.6526405796312457,0.09982480173525603,0.12452013596244481,0.22434493769770084,0.8116636217650822,0.05478190339129904,0.053564527760381286,0.10834643115168033,1.0308747412008281,0.15156410294885553,-1.2673122224465356,0.46257308337238984,0.42422366617590124,0.2722269512833971,0.26956100127895144,0.5557177369941657,0.31167165794312096,1.2058906051645848,2.113811673527443,1.7282164436982093,0.10196414819499028,0.5544878938220645,2.191680262818986,27.724634568241232,0.25435195094869306,0.0,1.0,0.02259599123698061,0.0003068594266232326,0.016821393356915623,-0.012653337546863264,83.6861377834928,1.8906342463986976,16.73913043478261,40.78065889143992,-0.6289952528115543,27.72463456824122,0.9967589482253532,0.9831121388182366,0.3555584681982634,0.0,0.0,0.0,0.023842164868570066,52.904285857032725,0.04100852357394052,25.904246703702963,0.05817488227931096,6.976098577410774,-12549584074.004751,0.12923397602918185,6.214743773127477,35.53934340802501,1.4054194893173526,5.569365374713099,-1.5624373002993404,11.305328288384706,2.948067999343085,11.694526005269463,-2.0668582806900365e-05,0.42150892072357415,1203.0,35.53934340802501,0.0,0.06667515174201936,2.848714889383059,0.4443485004977005,1.817520703875884
7,1669021386.0,1669021446.0,40,7679,120.75920308516501,0.24678470149184717,0.9163518385453657,0.6695671370535186,0.1987853194728042,0.1707856799616958,0.15721009716843115,0.1259377725196607,0.10205929207079338,0.08654434030706232,0.6163557009263472,0.5693260033925375,0.5307810451045181,0.374419421860666,0.2218153259970925,0.15721009716843115,2.680886961509144,2.8308516097374663,2.811587558637587,2.5247869778215386,2.031444087544566,1.7857617427136145,65.23568532716467,0.02200807396796458,-0.0008796882484159803,62.45286896333424,1.465053371682716,55.05259827548104,1.4976101132756652,19.282260851505054,2.9626634849583815,5392.539113007061,0.9071121796934379,-0.06871674766389632,1.1193017473289135,78.11488648124133,-42.47971497857846,48.856095365398275,1.4360754341706935e-15,-0.1864734511331869,0.14081861999329126,12.9067027324608,0.16582825657207914,-1.2738084549174116,0.00022755545099276906,1.0,0.0,3.25,9.675,15.2,26.375,82.075,82.075,82.075,84.075,0.0,3.6,9.525,15.775,26.275,82.075,82.075,82.075,84.075,0.0,1.25,9.825,17.4,26.4,83.075,83.075,83.075,85.075,0.16899782419204712,0.39799487590789795,0.5669927000999451,0.4318587188973531,0.13819822072982788,0.27059651613235475,0.4087947368621826,0.5203468314295708,0.11839847564697266,0.18719758987426757,0.30559606552124025,0.6433078417409359,0.09819873571395873,0.12459839582443237,0.22279713153839112,0.7972819421290784,0.053399312496185306,0.05399930477142334,0.10739861726760865,0.999345238095238,0.16582825657207914,-1.2738084549174116,0.5161574323395107,0.4688296355418388,0.3123458067058119,0.310322683796065,0.6242988583867005,0.3570333346454925,1.211529604915802,2.1435395650474747,1.7388048957968216,0.1365222203853112,0.6390040650504807,2.2332793418730112,35.23888391919705,0.2535906475702158,0.0,1.0,0.025651984686770917,0.00017460914995282234,0.01926633267282381,-0.014348840921786992,84.11917952502709,2.155132302135597,20.35,51.72062464427438,-0.7485214305364583,35.23888391919705,0.9967664022833986,0.9832522920299549,0.36363087268804234,0.0,0.0,0.0,0.022888478273827263,53.22707253409673,0.04100852357394052,16.43368114898104,0.056267509089825356,25.163347536149047,-12408034870.876465,0.17769671704012505,8.331096104271383,5.7024491922876495,0.5492443981240229,1.5016477596104785,-2.1752126181533225,96.88697481781652,7.6287747195466205,2.9851373649524087,-2.3974593828710927e-05,0.3656793093159727,1247.0,5.7024491922876495,0.0,0.07064315607513724,1.4976101132756652,0.4071592182984598,1.8137356428532025
8,1669021396.0,1669021456.0,39,7679,128.05194342566455,0.25181214259221,0.9306957098153922,0.6788835672231821,0.2033204592191256,0.1750131313617413,0.1617209948026217,0.1281214273892916,0.10436788705679087,0.08836809305044321,0.6249765689556416,0.5767310362595778,0.5382084553058331,0.3768566865187425,0.21968947924100435,0.1550749265230619,2.726416536722303,2.878053258586003,2.8523225023897805,2.5492210015669534,2.013638482525122,1.7765692099438228,64.18911204722305,0.021617398098710768,-0.0017351135590796367,61.62640926763335,1.465053371682716,48.81628485668312,1.4976101132756652,30.923484783136267,1.4324966300897668,5806.276157332785,0.9062817526870595,-0.14539416057528262,0.9718831654742388,83.79518436384339,-45.25842441879322,53.71787591540102,-9.475136885249936e-16,-0.2423344556856674,0.15664960634330027,12.9067027324608,0.186616603926268,-1.2783620703724436,0.00024247388999282555,1.0,0.0,3.3333333333333335,9.76923076923077,15.128205128205128,26.358974358974358,82.28205128205128,82.28205128205128,82.28205128205128,84.28205128205128,0.0,3.6923076923076925,9.615384615384615,15.923076923076923,26.333333333333332,82.28205128205128,82.28205128205128,82.28205128205128,84.28205128205128,0.0,1.3333333333333333,10.025641025641026,17.46153846153846,26.358974358974358,83.28205128205128,83.28205128205128,83.28205128205128,85.28205128205128,0.1679978370666504,0.39609746443919647,0.5640953015058469,0.43210280354722014,0.13681875131069085,0.26522735448984,0.40204610580053085,0.5263441127478423,0.11794719940576798,0.18338225438044622,0.3013294537862142,0.6537799929787945,0.09722951742318961,0.12348558963873447,0.22071510706192407,0.795714795312914,0.05312752112364157,0.05476852563711313,0.1078960467607547,0.9810134310134311,0.186616603926268,-1.2783620703724436,0.534753659846255,0.48013707498505626,0.32905174454191843,0.32482732734469494,0.6492114053737288,0.37572540811679017,1.2174586143244057,2.174157638247545,1.7494207057316318,0.14772523233925666,0.6742961761223665,2.2785354827474773,37.484974266220696,0.25262385921159175,0.0,1.0,0.026810051230139107,0.00010997664849868469,0.02013109981600713,-0.014836390285523686,84.32958860047998,2.2575581719678186,23.025641025641026,54.90553300359754,-0.7982638109831717,37.484974266220696,0.9965220116679172,0.9833844052704332,0.34379305704631435,0.0,0.0,0.0,0.02193479167908446,24.57348450271289,0.0371937771949693,35.91127357478097,0.05531382249508256,25.211019023692547,-16432167531.325459,0.14538822303282958,4.634187284651799,31.145388223032825,1.0338718082334548,4.747376047136135,-1.4842027043404709,13.822320278594116,3.3069658647096367,10.808401949146388,-2.1336649283956336e-05,0.43178366263120416,1244.0,31.145388223032825,0.0,0.06837483350933182,1.5790019672580384,0.4606326942340988,1.8186332754569836
9,1669021406.0,1669021466.0,33,7679,130.13489815019693,0.25144291657667894,0.9297111071073092,0.6782681905306303,0.20282815786508412,0.17489005602323093,0.16122869344858023,0.1277522013737605,0.10387558570274939,0.08849116838895357,0.6238688909090482,0.5757464335514949,0.5372238525977502,0.37537978245661807,0.21710489713228664,0.1528595704298753,2.7270806981232343,2.8741759964234346,2.852874220907562,2.542578545229927,1.9965542846716937,1.7462894896641026,64.29228233178863,0.021617398098710768,-0.002682971323473949,71.28308626709315,1.4813317424791907,19.708853168156033,1.4162182592932921,15.40186223233712,2.9626634849583815,6173.200798872442,0.9078695106057451,-0.22528955215648808,0.9770324848488912,83.97016777085041,-44.954173718844274,53.137419873189515,-1.5989293493859267e-15,-0.2526021175280989,0.21633455909126909,12.9067027324608,0.22018174911732669,-1.2750756854554428,0.00027712009027923174,1.0,0.0,3.5454545454545454,9.848484848484848,15.636363636363637,26.03030303030303,83.0,83.0,83.0,85.0,0.0,3.757575757575758,9.696969696969697,16.393939393939394,26.12121212121212,83.0,83.0,83.0,85.0,0.0,1.393939393939394,10.151515151515152,17.515151515151516,26.060606060606062,84.0,84.0,84.0,86.0,0.1655736258535674,0.39369190100467566,0.559265526858243,0.42946724563441263,0.134301301204797,0.25963302092118695,0.39393432212598395,0.5289268878521943,0.11515003262144147,0.17939162976814038,0.29454166238958185,0.652657992105103,0.09405939506761955,0.1216954028967655,0.21575479796438507,0.7804197651333874,0.05187811995997573,0.055514436779600204,0.10739255673957593,0.9468975468975469,0.22018174911732669,-1.2750756854554428,0.5315866891979661,0.46633291866,0.33716510742783706,0.329480053316572,0.6504261306668373,0.3848158550758629,1.2284916655510127,2.2328012126811916,1.771280782110146,0.15497822162676228,0.6906363700231336,2.3665378191958326,38.06746719310729,0.25013814456884625,0.0,1.0,0.027148700347957626,-6.321270337840996e-05,0.02030264874736437,-0.014788763284521191,85.04944419160253,2.3019065104670435,26.0,55.458529961364896,-0.8504664665032966,38.06746719310729,0.9961257272090194,0.9834368480771872,0.32151423418335323,0.0,0.0,0.0,0.025749538058055674,42.669900650045065,0.03814746378971211,32.22888937782814,0.059128568874053766,31.059480420997748,-16348409010.003736,0.14538822303282958,10.151489865928285,12.487232933819696,0.5169359041167274,2.8215115015712513,-1.7323762111136305,29.369158234975316,4.935692164861726,7.7313117636325615,-2.2901883161183348e-05,0.4422546628814371,1374.0,12.487232933819696,0.0,0.057942650610468625,2.9138283725689575,0.4425605508703991,1.8169521040169978
10,1669021416.0,1669021476.0,45,7679,125.51853220284178,0.34725868701934814,0.7977792024612427,0.45052051544189453,0.29789090156555176,0.2675755023956299,0.25325989723205566,0.21810245513916016,0.16473472118377686,0.10905122756958008,0.39831066131591797,0.3547322750091553,0.33031153678894043,0.264522910118103,0.18420815467834473,0.139998197555542,2.1507635438427704,2.247683561361498,2.252106428174551,2.172198343935987,1.8616314604113073,1.6669744688946282,86.30058945344872,0.022919650996223468,-0.004177642587932816,77.93429104508105,1.4813317424791907,23.905752066467034,1.5301668548686145,20.531903657737974,1.4162182592932921,6657.894450666143,0.9054033437876827,-0.3632414817414932,2.494183145350803,86.94891295648932,-59.30272296910005,63.24390236633137,-1.184392110656242e-16,-0.23417452860358107,-0.12896527178605544,12.9067027324608,0.2191773593922624,-1.2813241585471369,0.0001952073305556574,1.0,0.0,3.5555555555555554,9.755555555555556,15.311111111111112,26.08888888888889,82.55555555555556,82.55555555555556,82.55555555555556,84.55555555555556,0.0,3.8,9.666666666666666,15.644444444444444,26.177777777777777,82.55555555555556,82.55555555555556,82.55555555555556,84.55555555555556,0.0,1.288888888888889,10.022222222222222,17.355555555555554,26.11111111111111,83.55555555555556,83.55555555555556,83.55555555555556,85.55555555555556,0.16675340864393445,0.3941282590230306,0.560881667666965,0.4290689725225865,0.13546492258707682,0.25990776485866973,0.39537268744574655,0.5291659619491362,0.11626516977945964,0.17777548895941842,0.294040658738878,0.6613175874918455,0.09617653952704536,0.11946512858072916,0.21564166810777452,0.8106724894186192,0.052799320220947264,0.055465952555338545,0.10826527277628581,0.9625132275132273,0.2191773593922624,-1.2813241585471369,0.4982482985939657,0.44043766409295637,0.3132887086235964,0.3079317321024532,0.6090902890777786,0.3578187298105634,1.2259575941756191,2.2049652685826935,1.7641293997316245,0.13507068440576286,0.6435048896326502,2.3093085461607745,33.4413064964201,0.24902283055070915,0.0,1.0,0.02542354281990328,-3.272574354728517e-05,0.01861024328460935,-0.013927464149649137,84.59906578462738,2.147651775360392,24.177777777777777,48.87017893958872,-0.790967951669108,33.4413064964201,0.9964605941443668,0.9833791210045337,0.3342287931317203,0.0,0.0,0.0,0.026703224652798476,44.42846040948351,0.05722119568456816,35.97808705912819,0.10490552542170829,16.772060065541584,-15923400733.29366,0.17769671704012505,10.697568524535997,6.300156331422615,0.4523189161021365,1.894671053447841,-1.8485452441887429,61.83746746244337,7.085202003237376,5.289830276634753,-2.3655166704165598e-05,0.4351571392612027,1265.0,6.300156331422615,0.0,0.062371237254893255,1.6441154504439368,0.4330708983634657,1.8141335671523129
11,1669021426.0,1669021486.0,60,7679,121.42552755082095,0.233560211357029,0.6890026235032356,0.45544241214620657,0.18583668785533686,0.1587106003158394,0.14749235394357266,0.122205323186414,0.09930906624629579,0.08468856482670226,0.4049603034710062,0.3607309878557578,0.3358117684550669,0.2696057242908697,0.18776769747679262,0.14133151372273764,2.227684805007019,2.329149496303558,2.3318131457525078,2.2454174544184684,1.928048611669301,1.708717129815133,87.0221673267706,0.023570777444979815,0.00624436649718269,66.62144879248471,1.4813317424791907,26.680060311634833,1.5301668548686145,18.913617842464916,2.897550001772483,7162.291656467454,0.9021780737427489,0.5667618401039904,8.717347074194855,90.7637052308989,-70.72460322361127,73.53357755689308,-2.428003826845296e-15,-0.2148784317022896,-0.42524029254161366,12.9067027324608,0.2066075059286804,-1.2824866637153813,0.0001887909753437597,1.0,0.0,3.5,9.683333333333334,15.3,26.266666666666666,82.98333333333333,82.98333333333333,82.98333333333333,84.98333333333333,0.0,3.816666666666667,9.65,15.35,26.316666666666666,82.98333333333333,82.98333333333333,82.98333333333333,84.98333333333333,0.0,1.2166666666666666,9.916666666666666,17.283333333333335,26.283333333333335,83.98333333333333,83.98333333333333,83.98333333333333,85.98333333333333,0.16839783191680907,0.39612823327382407,0.5645260651906331,0.4305658407707566,0.1370649019877116,0.26386326948801675,0.40092817147572835,0.5270493362775356,0.1178651491800944,0.1803976774215698,0.2982628266016642,0.6603798292942428,0.09786540667215983,0.12039844989776612,0.21826385656992595,0.8179749942037093,0.053865973154703775,0.05533262093861898,0.10919859409332275,0.9825992063492063,0.2066075059286804,-1.2824866637153813,0.4762521987145929,0.42437749086167253,0.29757340000923266,0.29430133530346225,0.5813195004652647,0.33997434921150954,1.223407516868526,2.1891142336984375,1.757570633099902,0.12194846979829393,0.6117412900759265,2.2866181958047487,30.503871723379785,0.2506253426285793,0.0,1.0,0.024081575994548625,-2.5331546269362436e-05,0.017585691010139466,-0.013278462511012782,85.02258098477613,2.0433054483205373,23.116666666666667,44.419822069313426,-0.7504401184949707,30.503871723379785,0.9966595847438426,0.9833836791436207,0.3376582555951103,0.0,0.0,0.0,0.02193479167908446,19.470142456447896,0.03910115038445491,47.93608617657242,0.0705728080109674,32.58498214657864,-16187600853.61763,0.14538822303282958,8.413010176233996,5.508598228243876,0.46847316310578424,1.5402171371776165,-1.6775012178495807,106.52275350282534,8.825562273016699,3.733479322927076,-2.3943246818075795e-05,0.33888535690436705,1201.0,5.508598228243876,0.0,0.0746525845965731,1.5301668548686145,0.43798071871330335,1.8124802155321398
12,1669021436.0,1669021496.0,67,7679,114.32788063259481,0.23526969822970303,0.6909001957286488,0.45563049749894574,0.18736122413115067,0.160361571745439,0.14899808168411255,0.1237256797877225,0.10063506798310713,0.08590798486362804,0.40754020755941217,0.363813497803428,0.3399047147143971,0.27481464364311914,0.19127026471224698,0.14299815893173218,2.222580773367211,2.3242902213537513,2.3359635670916634,2.2607940021208734,1.9374672991150264,1.7024627684914764,86.87370533707782,0.023440552155228545,-0.003889394540735134,59.74182065870108,1.4813317424791907,27.699196924298167,1.5301668548686145,20.583134732334692,1.3999398884968175,6115.901873367664,0.8989700940016535,-0.3299982944149916,8.534130417035932,84.84567223993137,-67.70535294148064,69.49344896483602,0.0,-0.296650229486622,-0.3448865184288161,12.9067027324608,0.19678385707889964,-1.2888659219996133,0.00014881488561567543,1.0,0.0,3.4328358208955225,9.492537313432836,15.08955223880597,26.28358208955224,83.1044776119403,83.1044776119403,83.1044776119403,85.1044776119403,0.0,3.716417910447761,9.477611940298507,14.462686567164178,26.35820895522388,83.1044776119403,83.1044776119403,83.1044776119403,85.1044776119403,0.0,1.0746268656716418,9.671641791044776,17.044776119402986,26.29850746268657,84.1044776119403,84.1044776119403,84.1044776119403,86.1044776119403,0.16955005588816174,0.39641280672443446,0.5659628626125962,0.43151496258214705,0.13838627801012637,0.2661458271652905,0.4045321051754169,0.5253395513084974,0.11928204636075604,0.18196780646025246,0.30124985282100847,0.6608143647403172,0.09934200457672575,0.12059546228665025,0.21993746686337598,0.827568511139626,0.05468586309632258,0.055760476126599665,0.11044633922292225,0.9890724946695097,0.19678385707889964,-1.2888659219996133,0.44617732644648045,0.4016293341623442,0.2783655532224799,0.2782224367670323,0.5448819140736455,0.3181135832620019,1.2222882083326616,2.170002404622331,1.751203902932863,0.10592517956193274,0.5734931950783739,2.255387740336636,26.425833921030968,0.25030270040069463,0.0,1.0,0.022529607594521942,-8.911976277118255e-05,0.01635465939039497,-0.012651540917501739,85.13848425122819,1.9157961816398823,22.119402985074625,38.40533728149847,-0.7165145690789652,26.425833921030968,0.9969882093263819,0.9833973565142565,0.34636204370522927,0.0,0.0,0.0,0.02193479167908446,43.83322318013385,0.04100852357394052,20.952728813617032,0.05531382249508256,39.00827510834046,-14396456052.730392,0.19385096404377278,9.031495059200779,16.80041688379364,0.6946326211568524,3.209715146416648,-1.5432833020213248,24.503830613809733,4.497944789379942,8.424697894630224,-2.2586373174993328e-05,0.26395092186534563,1234.0,16.80041688379364,0.0,0.0820666950066704,1.5301668548686145,0.4161318567564366,1.8145987824605412
13,1669021446.0,1669021506.0,73,7679,104.19035062259019,0.23536060615019364,0.6923547224564985,0.45699411630630493,0.18781576373360373,0.1609070192683827,0.1494526212865656,0.12418021939017555,0.10081688382408836,0.08618070862509987,0.40808565508235584,0.3657225641337308,0.3424501364881342,0.27754188125783746,0.19281569936058737,0.1433617906136946,2.2187190602675373,2.326955836407225,2.3453300648869533,2.2741824825130306,1.9496942766829128,1.7015846693179228,86.66601152700112,0.023440552155228545,-0.007630194276537255,53.7082340724397,1.4813317424791907,49.243651366755074,1.4487750008862414,23.065364983984264,1.3999398884968175,5129.940845507113,0.8979470109949871,-0.5875407271912334,8.290911237776797,77.0020665132883,-64.54672058734839,64.64557068141897,1.687758757685145e-15,-0.32608914642164516,-0.43945474688472697,12.9067027324608,0.19034119522034368,-1.2886689354410479,0.00013818011428557735,1.0,0.0,3.452054794520548,9.424657534246576,14.794520547945206,26.34246575342466,83.06849315068493,83.06849315068493,83.06849315068493,85.06849315068493,0.0,3.7534246575342465,9.452054794520548,14.027397260273972,26.397260273972602,83.06849315068493,83.06849315068493,83.06849315068493,85.06849315068493,0.0,1.0,9.616438356164384,16.904109589041095,26.356164383561644,84.06849315068493,84.06849315068493,84.06849315068493,86.06849315068493,0.1700800020400792,0.3975839222947212,0.5676639243348004,0.43138058616514197,0.13884752743864712,0.267941755791233,0.4067892832298801,0.5232296278047412,0.12010804267778788,0.1826825795108325,0.30279062218862035,0.6628323129842819,0.10038226924530447,0.12021763030796835,0.22059989955327283,0.8390922948034149,0.05567051613167541,0.055560928501494945,0.11123144463317035,1.0109262883235486,0.19034119522034368,-1.2886689354410479,0.420765325006916,0.3813737168136668,0.2593537271998016,0.26003606844665217,0.5124718367667463,0.2966370586012422,1.2202315731415883,2.157459246715593,1.7468031720033148,0.08870738245127752,0.5338820684725392,2.2369052485085956,22.780144989443702,0.2506297346201729,0.0,1.0,0.021049355425844584,-2.6654342331609606e-05,0.015076991215573439,-0.011894243747984702,85.09742782292459,1.7910241893778371,20.15068493150685,33.04921553834879,-0.6617581348609045,22.780144989443702,0.997119553493206,0.9833576487801277,0.3389700921061705,0.0,0.0,0.0,0.022888478273827263,58.13993771732322,0.04100852357394052,35.108497956363465,0.06198962865828218,15.748432743053618,-13203221538.720768,0.24231370505471597,7.587677886312699,4.5070349140177175,0.4361646690984887,1.2847312523343684,-1.5977581101758136,146.20231598657065,8.802801940251781,2.3681196814628964,-2.4150891308458515e-05,0.23297040161240712,1220.0,4.5070349140177175,0.0,0.08221721348139033,2.848714889383059,0.41662677677778237,1.8144501187581739
14,1669021456.0,1669021516.0,78,7679,101.87443119809751,0.23136065764860672,0.6853548125787214,0.45399415493011475,0.18381581523201682,0.1571797945282676,0.14572539654645053,0.12190752137791026,0.09845327789133246,0.08408982645381581,0.4046311541037126,0.3624498789960688,0.33917745135047217,0.2753600911660628,0.19190662015568127,0.14299815893173218,2.2009090672693232,2.305625569605833,2.327932967445351,2.258677107206519,1.9502807798262347,1.702737603305785,87.54976530079047,0.023310326865477276,-0.0010663395919717504,62.53847412072302,1.4487750008862414,45.26875232755029,1.4813317424791907,19.42245707588117,2.930106743365432,4545.571669440742,0.8933322786663402,-0.07799263592230968,8.53413041712529,73.1405234406563,-62.53898578181506,63.54636230489846,1.2732215189554601e-15,-0.22947677193275623,-1.1181291766360664,12.9067027324608,0.18959002204053405,-1.286775095165783,0.00011667482086670102,1.0,0.0,3.41025641025641,9.333333333333334,14.666666666666666,26.371794871794872,82.96153846153847,82.96153846153847,82.96153846153847,84.96153846153847,0.0,3.6666666666666665,9.371794871794872,13.948717948717949,26.41025641025641,82.96153846153847,82.96153846153847,82.96153846153847,84.96153846153847,0.0,1.0,9.538461538461538,16.846153846153847,26.397435897435898,83.96153846153847,83.96153846153847,83.96153846153847,85.96153846153847,0.17056190661894968,0.40071278963333523,0.5712746962522849,0.42869242105737343,0.13938282086299017,0.2703554935944386,0.40973831445742875,0.5201180773477887,0.12061383174015926,0.18327969159835425,0.3038935233385135,0.6628588002337971,0.10061408923222469,0.12040870617597531,0.2210227954082,0.8396559050970817,0.055794153458032854,0.05528133954757299,0.11107549300560585,1.0177808302808302,0.18959002204053405,-1.286775095165783,0.42002280024417143,0.3827782344401056,0.25562070876686654,0.2566075386904961,0.5103367293243745,0.29250662685559337,1.2168866547782042,2.138431698447556,1.7426166626572694,0.08609839585641876,0.5253716505827986,2.199179222461858,22.523585733636335,0.2510979315111965,0.0,1.0,0.020856691199610162,6.0860859226946744e-05,0.014882797215801217,-0.011724515454646249,84.98991791213984,1.772302954890361,19.615384615384617,32.72836576945618,-0.6446117803429509,22.523585733636335,0.997122643599487,0.9833121114762363,0.3846665669296817,0.0,0.0,0.0,0.02193479167908446,38.16318160334317,0.03814746378971211,30.88423721755524,0.05436013590033975,26.5667011585649,-11509035564.289135,0.14538822303282958,12.983082136994778,36.6539864512767,1.4215737363210004,5.78798244888382,-1.348009553218806,10.742255036829894,2.863565570958629,11.936439314130565,-2.049090320247528e-05,0.38214654024009587,1128.0,36.6539864512767,0.0,0.110672017365115,2.8812716309760082,0.42990686496107705,1.8135890897713505
15,1669021466.0,1669021526.0,80,7679,100.54928103975887,0.23145156556909735,0.687809326431968,0.45635776086287066,0.18399763107299805,0.1572707024487582,0.14572539654645053,0.1221802451393821,0.0988169095732949,0.0839989185333252,0.40499478578567505,0.3635407740419561,0.34054107015783136,0.2769964337348938,0.19327023896304044,0.1439072381366383,2.2013413795222876,2.3115338061061745,2.3379284329361734,2.267186306340718,1.9555321572367028,1.7136363636363638,87.59677819664269,0.023180101575726007,-0.0014111266394503772,57.502589264605675,1.465053371682716,18.838220723286113,2.930106743365432,10.109880961220805,2.8812716309760082,4364.405767683873,0.8921006633543498,-0.10343527777114286,8.232855500541802,73.29978393110777,-61.42394655897832,62.54979515351782,-1.2436117161890542e-15,-0.21441538472709304,-0.91301617676252,12.9067027324608,0.1868392169840102,-1.2872243202964013,0.0001248311703935622,1.0,0.0,3.425,9.3375,14.575,26.4625,82.7875,82.7875,82.7875,84.7875,0.0,3.6875,9.375,13.9125,26.475,82.7875,82.7875,82.7875,84.7875,0.0,1.0,9.5875,16.875,26.4875,83.7875,83.7875,83.7875,85.7875,0.17079780101776124,0.3986948668956757,0.5694926679134369,0.4320270555150364,0.1398981988430023,0.2685965418815613,0.4084947407245636,0.526139812375005,0.12119843959808349,0.1819976568222046,0.3031960964202881,0.6708697891337805,0.1012986958026886,0.1196984589099884,0.220997154712677,0.850277373770021,0.05609927773475647,0.054499298334121704,0.11059857606887817,1.0375744047619047,0.1868392169840102,-1.2872243202964013,0.41556018659069005,0.3783448820087126,0.25341597894921775,0.2541115312206217,0.504800334213778,0.28997765154049004,1.2164546645069632,2.1433820002936605,1.7430629334882923,0.08450074799288443,0.5209803903934249,2.212520269107531,21.931077319966825,0.2510991010099439,0.0,1.0,0.02071120036882153,3.095679594969711e-05,0.014841742386729546,-0.011660742980418602,84.81533128906302,1.756057315359007,21.7125,31.946061385307083,-0.6376930821550602,21.931077319966825,0.9971523523070015,0.9833013008433052,0.39502994703734856,0.0,0.0,0.0,0.022888478273827263,35.06400538833499,0.04100852357394052,21.909733306624982,0.05817488227931096,12.011107863917099,-8481655862.778091,0.12923397602918185,18.937079237937898,15.782699322563834,1.3892652423137049,3.26995573946638,-2.0684951497883874,25.53420178413923,4.587441974274707,8.214919580429449,-2.2537413024995845e-05,0.4561714373982133,1185.0,15.782699322563834,0.0,0.11896943708705213,2.6208176982324143,0.374002493506086,1.812397744353438
16,1669021476.0,1669021536.0,80,7679,100.43709933490817,0.23181519725105978,0.6858093521811746,0.45399415493011475,0.18427035483446988,0.15763433413072067,0.1463617519898848,0.12263478474183516,0.09918054125525734,0.08436255021528764,0.40508569370616565,0.3637225898829373,0.34063197807832196,0.27736006541685626,0.194542949849909,0.14499813318252563,2.198515442284295,2.307232807397281,2.328362964005379,2.262082617137764,1.9615914388641662,1.719886363636364,87.53801996066427,0.023180101575726007,-0.0017517784848929865,81.31940047018307,1.465053371682716,25.376464010649347,1.4162182592932921,23.383009549418027,2.930106743365432,4448.104705382096,0.8933672894773452,-0.12670031129335488,8.310804944691132,72.32667394079498,-61.70759402609249,62.72690293121274,-3.7604449513335685e-15,-0.22598301008072133,-1.1228947709978223,12.9067027324608,0.1757310096528643,-1.285548941606738,0.0001557008383460175,0.9875,0.0,3.45,9.3125,14.675,26.5875,82.8625,82.8625,82.8625,84.8625,0.0,3.625,9.3125,13.825,26.525,82.8625,82.8625,82.8625,84.8625,0.0,1.0,9.5625,16.875,26.6125,83.8625,83.8625,83.8625,85.8625,0.17179778814315796,0.39939485788345336,0.5711926460266114,0.43379983578293047,0.14079818725585938,0.27049651741981506,0.4112947046756744,0.5263061279604495,0.12219842672348022,0.1837976336479187,0.3059960603713989,0.670293478668883,0.10169869065284728,0.12049844861030579,0.22219713926315307,0.8490438595309918,0.056299275159835814,0.05409930348396301,0.11039857864379883,1.0508184523809523,0.1757310096528643,-1.285548941606738,0.42134187473038553,0.3848127647581634,0.25515701437556615,0.25610907728482585,0.5106738780803065,0.29200804918965634,1.214225251992011,2.1367345927648502,1.739881007054405,0.085697672794711,0.5242713518035498,2.2085359845751267,22.490983494246603,0.2522992281448283,0.0375,1.0375,0.020865448296292714,5.5512641452135555e-05,0.015301264083742322,-0.011671436821780576,84.89073506527036,1.7706691397850114,25.4125,32.7354361851468,-0.6361581425856944,22.490983494246603,0.997187670496553,0.9832970323978749,0.3948086695238186,0.0,0.0,0.0,0.023842164868570066,29.6213338916301,0.03910115038445491,6.944355294150673,0.05531382249508256,17.319447367223024,-8326084066.346373,0.16154247003647731,25.4839337534009,25.346013548723292,1.373110995310057,4.1183594635118475,-2.0854219764284907,17.618291485094716,3.7699175957740065,9.70462309448043,-2.184787841909654e-05,0.5842871432995358,1261.0,25.346013548723292,0.0,0.1166893539537699,2.897550001772483,0.32094296668838923,1.8125622087435778
17,1669021486.0,1669021546.0,75,7679,100.78922969565761,0.23019928342840645,0.6816990884502282,0.4514998050218218,0.18282910679163558,0.15640248073620744,0.14516667033849137,0.1215265252616968,0.0980661531512657,0.08341465639264396,0.4033206500364154,0.3617930948064568,0.3388720415951161,0.27640093578381486,0.19352559829026125,0.1439981460571289,2.206386029914685,2.313320989740269,2.3350366994816847,2.274625468164794,1.974345878840261,1.7279423447962772,88.01286802874505,0.023440552155228545,-0.0029579021861344504,92.29289409360885,1.465053371682716,29.060609937217365,2.930106743365432,8.873562152046217,1.5138884840721398,4548.205859933126,0.8932775126845386,-0.21475654790792556,8.586700130638619,72.60434402280937,-62.01404123146032,62.825755199021366,-6.514156608609331e-16,-0.2375490164440128,-1.1191676340507202,12.9067027324608,0.17023274698680838,-1.2804629871319713,0.00019930874687806052,0.9866666666666667,0.0,3.466666666666667,9.32,14.653333333333334,26.506666666666668,82.45333333333333,82.45333333333333,82.45333333333333,84.45333333333333,0.0,3.6,9.24,13.68,26.426666666666666,82.45333333333333,82.45333333333333,82.45333333333333,84.45333333333333,0.0,1.0,9.573333333333334,16.826666666666668,26.533333333333335,83.45333333333333,83.45333333333333,83.45333333333333,85.45333333333333,0.17130446116129558,0.39402159372965495,0.5653260548909506,0.43915258506972854,0.14058485666910808,0.26826321283976234,0.4088480695088704,0.5308288414757673,0.12170509974161783,0.18207765579223634,0.30378275553385414,0.6746542359756437,0.10143869400024413,0.11967845916748047,0.22111715316772462,0.8530588594412124,0.056105944315592446,0.053972638448079424,0.11007858276367187,1.0506349206349206,0.17023274698680838,-1.2804629871319713,0.4250316054678126,0.387026523670857,0.258881854236657,0.25941299142989327,0.515260960538099,0.2964435410515402,1.2150300069596063,2.149331838426968,1.7417799561717653,0.08849601939406698,0.5310365848180951,2.2442804831160093,22.81428695434796,0.25105723857502094,0.04,1.04,0.021247437485796845,-2.1744835593142368e-05,0.01570710391721465,-0.011958752376485788,84.48239192968077,1.7944267309250412,28.30666666666667,33.36852788546522,-0.6529993118053693,22.81428695434796,0.9971114311609631,0.9832233862242613,0.39111483186206997,0.0,0.0,0.0,0.022888478273827263,19.8401208035117,0.03910115038445491,28.827567694530803,0.056267509089825356,7.616915105916347,-7885403935.924311,0.14538822303282958,24.209590524790535,8.028660760812922,0.5653986451276706,2.3779321094486536,-2.6043518880233076,40.85775480499939,5.785731269919623,6.4660207592181225,-2.3262399425626233e-05,0.728977183662399,1371.0,8.028660760812922,0.0,0.1080599530905938,2.897550001772483,0.2649472894526195,1.8133443124157713
18,1669021496.0,1669021556.0,69,7679,100.61959613999967,0.22858132673113535,0.6779238561565957,0.4493425294254603,0.1813010365775462,0.15496429700529976,0.14408803254031063,0.12044788746351606,0.09680774238672149,0.08242590507764495,0.40170269333914427,0.3598155921764588,0.3367147659987546,0.2737942277715447,0.19037957137890077,0.14184087046076743,2.216150345553452,2.321964403739024,2.337476084460987,2.2732374367205823,1.9671629868259082,1.722165474974464,88.53232694132248,0.023570777444979815,-0.0029672447076805374,64.86244772239772,1.465053371682716,31.3390502994913,1.4976101132756652,26.645593014933418,2.930106743365432,4517.178044982594,0.8927858969860174,-0.21464469812413167,8.234685047825728,72.33805070695267,-61.44936556590214,62.439508050110945,2.0726861936484235e-16,-0.23505619881975673,-1.1053742104251136,12.9067027324608,0.17609253598760355,-1.2744758981212827,0.00022244404418219818,0.9855072463768116,0.0,3.420289855072464,9.318840579710145,14.478260869565217,26.333333333333332,82.18840579710145,82.18840579710145,82.18840579710145,84.18840579710145,0.0,3.5942028985507246,9.18840579710145,13.681159420289855,26.217391304347824,82.18840579710145,82.18840579710145,82.18840579710145,84.18840579710145,0.0,1.0144927536231885,9.594202898550725,16.753623188405797,26.36231884057971,83.18840579710145,83.18840579710145,83.18840579710145,85.18840579710145,0.17008476671965225,0.3938500017359637,0.563934768455616,0.43642268958032243,0.13936052460601364,0.2673588766567949,0.40671940126280853,0.5283951337684022,0.1206940982652747,0.18075129605721738,0.30144539432249207,0.6744816553797132,0.1006363854892012,0.11872310914855072,0.21935949463775192,0.8537475525327187,0.055767397949661034,0.053564527760381286,0.10933192571004231,1.053657694962043,0.17609253598760355,-1.2744758981212827,0.4222924766386945,0.38217827408443805,0.2572653196461674,0.2560955659317281,0.511835493342608,0.2947407547977396,1.215137478879923,2.1560101871233863,1.7446260826000124,0.08755724689852748,0.5272871025441368,2.256531658303212,22.47856846586046,0.24979924145615867,0.057971014492753624,1.0579710144927537,0.02119164886977163,-1.3105033119872825e-05,0.01563464517289533,-0.011818748264891148,84.21737898127327,1.784438941896247,29.333333333333332,32.96615433909146,-0.6527225828882844,22.478568465860462,0.9969290011405658,0.9831506023079359,0.38661936782480416,0.0,0.0,0.0,0.024795851463312868,31.613288208664077,0.03910115038445491,18.064397301940907,0.05817488227931096,15.081007832192586,-9360378122.154934,0.14538822303282958,21.277486006870564,29.949973944762895,1.4377279833246481,4.68725785150556,-1.9545297613868615,14.633575292642085,3.406182776646879,10.50255982551681,-2.1385509956247873e-05,0.6106332484123844,1223.0,29.949973944762895,0.0,0.10043027653576549,2.897550001772483,0.3835831830558934,1.8139085535426953
19,1669021506.0,1669021566.0,70,7679,100.93961742527182,0.22728596263461642,0.6736802154117161,0.4463942527770996,0.179731019337972,0.15377579794989693,0.14275371763441297,0.11919846534729003,0.09582098854912652,0.08168783717685275,0.3991059727138943,0.35697318183051213,0.3339512560102675,0.2704854064517551,0.18621982468499076,0.13884265687730576,2.221234506446177,2.3213597310269134,2.339761590796163,2.2683959096459096,1.9422235172235172,1.7001571268237938,89.06051953413301,0.023701002734731084,-0.003465511393951773,54.28889088406418,1.465053371682716,40.044765106842455,1.4976101132756652,21.130259678154708,2.930106743365432,4473.751016225925,0.8914544149819854,-0.2504045998141536,7.489377605289844,72.25617559681822,-61.41038470349155,62.45830245359495,2.6648822489765445e-15,-0.22161899892651646,-1.1101696751000354,12.9067027324608,0.18800586220385154,-1.2678446475744123,0.00022674180854663565,0.9857142857142858,0.0,3.342857142857143,9.185714285714285,14.357142857142858,26.0,81.48571428571428,81.48571428571428,81.48571428571428,83.48571428571428,0.0,3.4857142857142858,9.014285714285714,13.571428571428571,25.928571428571427,81.48571428571428,81.48571428571428,81.48571428571428,83.48571428571428,0.0,1.0142857142857142,9.485714285714286,16.614285714285714,26.02857142857143,82.48571428571428,82.48571428571428,82.48571428571428,84.48571428571428,0.1678835528237479,0.3917663846697126,0.5596499374934605,0.4333754011572156,0.13771251269749232,0.2641108853476388,0.4018233980451311,0.528878114335312,0.11919846534729003,0.17691200801304408,0.29611047336033414,0.6807876036649865,0.0989701543535505,0.11725563321794782,0.21622578757149832,0.8494809462246435,0.054513583864484516,0.05337074143545968,0.1078843252999442,1.033248299319728,0.18800586220385154,-1.2678446475744123,0.4196381364151695,0.37661433710552344,0.2562759291898199,0.25328366156589516,0.5089552708038613,0.29379400492801666,1.2159345802825652,2.164464926290995,1.749146250145381,0.08705329212599382,0.5248459358720753,2.26880486855983,22.06372750093667,0.24685039908087372,0.05714285714285714,1.0571428571428572,0.02130836404333608,-1.751865237209081e-05,0.015521787233895254,-0.011707279646283545,83.51484604395097,1.7792929218618703,28.4,32.60475536745426,-0.6616534475622533,22.06372750093667,0.9966702801363831,0.983040427558319,0.3868745591274262,0.0,0.0,0.0,0.024795851463312868,31.57514701276236,0.03910115038445491,18.307314843945544,0.059128568874053766,12.083163925372412,-9186627041.57803,0.14538822303282958,10.722876108280946,9.951016154247002,1.260031266284523,2.7798305763181688,-2.179398713014764,33.62871823732889,5.2637543642126685,7.157004040760525,-2.293575906195245e-05,0.5835057750677266,1241.0,9.951016154247002,0.0,0.10021115280451433,2.897550001772483,0.39230500432173837,1.8150407189108766
20,1669021516.0,1669021576.0,70,7679,101.23798055782433,0.227108187145657,0.6711024708218045,0.44399428367614746,0.17955324384901258,0.15333135922749838,0.14257594214545355,0.11893180211385092,0.09555432531568739,0.08151006168789333,0.39839487075805663,0.355195426940918,0.33181795014275445,0.26817432509528266,0.1843531820509169,0.13759822845458985,2.2207491582491583,2.3186685122392037,2.3297218400030575,2.2569012006512006,1.929202279202279,1.6888215488215488,89.40645511764357,0.023701002734731084,-0.0019333974454166828,52.520183061612826,1.5138884840721398,47.567204629054096,1.4487750008862414,16.58868534264666,2.930106743365432,4443.279695073779,0.8910983360773573,-0.13937145862668565,8.03219121429639,72.08629501248178,-62.02990719035221,62.84491813258857,-1.5249048424699116e-15,-0.22954841885081873,-1.1502564893489369,12.9067027324608,0.18577332755359258,-1.2648861528415587,0.00023305142181698435,0.9857142857142858,0.0,3.3,9.17142857142857,14.414285714285715,25.9,81.1,81.1,81.1,83.1,0.0,3.4857142857142858,8.985714285714286,13.528571428571428,25.84285714285714,81.1,81.1,81.1,83.1,0.0,1.0142857142857142,9.457142857142857,16.557142857142857,25.928571428571427,82.1,82.1,82.1,84.1,0.1673121316092355,0.3906235422406878,0.5579356738499233,0.43330581777268606,0.1372553757258824,0.2636537483760289,0.40090912410191126,0.5282764707743549,0.11839847564697266,0.17691200801304408,0.2953104836600167,0.6770442100675556,0.09874158586774553,0.11714134897504534,0.21588293484279086,0.8490704486922975,0.054285015378679545,0.05337074143545968,0.10765575681413923,1.0294217687074831,0.18577332755359258,-1.2648861528415587,0.4215324458645159,0.3786928567579702,0.25619998745128825,0.2529890093359147,0.510546579352087,0.293794722085955,1.2147053009393427,2.160861950788243,1.7474168730975324,0.08704173762382851,0.5243230327520112,2.2645930860965664,22.11836693710192,0.2462295505396171,0.05714285714285714,1.0571428571428572,0.021417824904485138,1.289198217464349e-05,0.015562385404838364,-0.011701482390451387,83.12928123528755,1.780127623229706,27.542857142857144,32.841670583213535,-0.6598464699156656,22.11836693710192,0.996659301110579,0.982982461619325,0.3998841701706045,0.0,0.0,0.0,0.02193479167908446,24.34504608266586,0.03814746378971211,33.13841219255223,0.05531382249508256,14.54482755003983,-8986186443.565166,0.14538822303282958,10.774606049824705,17.801980198019802,1.4377279833246481,3.4749634234776017,-2.2239705595397377,23.52052967342478,4.389709322545519,8.515601915006119,-2.237079436386249e-05,0.6219495636521326,1280.0,17.801980198019802,0.0,0.0978579650159388,2.930106743365432,0.3840885301698547,1.8149714462336282
21,1669021526.0,1669021586.0,72,7679,101.68115791271927,0.22681026668338986,0.6686507319356059,0.44184046525221604,0.17951417231297756,0.15331670740148523,0.14223992693555224,0.11841605783818843,0.09520756543337644,0.08158136724115728,0.39700587765201106,0.3537536872612251,0.33089683868072844,0.2687437927329933,0.18716242549183604,0.13951468729710842,2.2131545990241643,2.309430708855742,2.3281303749570004,2.2706989896550334,1.9651374266758883,1.7096237096237095,89.7379274752851,0.023961453314233626,0.000484381833057079,62.061664623582885,1.4976101132756652,31.084056542621237,1.4487750008862414,16.37732453056619,1.5627235964615638,4498.32681638601,0.8919209763870752,0.03501037740202178,8.530007812093586,72.27846920075592,-62.52520616672339,63.26362655134123,2.0282714894988144e-15,-0.2317766799463638,-1.1614694160705046,12.9067027324608,0.16719029053668513,-1.2601679733716185,0.000240928198946665,0.9861111111111112,0.0,3.2083333333333335,9.125,14.38888888888889,25.819444444444443,80.68055555555556,80.68055555555556,80.68055555555556,82.68055555555556,0.0,3.4027777777777777,8.944444444444445,13.48611111111111,25.75,80.68055555555556,80.68055555555556,80.68055555555556,82.68055555555556,0.0,1.0138888888888888,9.36111111111111,16.444444444444443,25.86111111111111,81.68055555555556,81.68055555555556,81.68055555555556,83.68055555555556,0.1671089596218533,0.3908838563495212,0.5579928159713745,0.4323119659051835,0.1369982361793518,0.2675521108839247,0.4045503470632765,0.5197235760073848,0.11799848079681396,0.1798865728908115,0.29788505368762547,0.6650772206188925,0.09877650605307685,0.11833180983861287,0.21710831589168972,0.8419702487007699,0.05411041445202298,0.05411041445202298,0.10822082890404595,1.013062169312169,0.16719029053668513,-1.2601679733716185,0.42923490703867667,0.3901794497473667,0.25711108321740733,0.255362486459999,0.5177930862331463,0.29517303085999014,1.2104916567367872,2.1397983747140654,1.7380796892613977,0.08790101828548763,0.525525156596595,2.2422145413241648,22.708531470790994,0.2466222861607024,0.05555555555555555,1.0555555555555556,0.02165521283854362,5.5384334567184914e-05,0.015777710917442456,-0.011862507410174463,82.71029087670075,1.79102969094651,23.791666666666668,33.86487114613916,-0.6556427633882284,22.70853147079099,0.9967204934314727,0.9828669798905215,0.4023306350236263,0.0,0.0,0.0,0.023842164868570066,39.048653449253386,0.04005483697919771,13.084721319845334,0.05722119568456816,15.509063047981838,-8241705513.786474,0.12923397602918185,16.88229288460265,7.463262115685252,1.4054194893173526,2.431065877070616,-2.53829932237117,46.0579386391396,6.118206404107751,6.078545837572393,-2.3219215301748915e-05,0.629764701467743,1210.0,7.463262115685252,0.0,0.10328065481776846,2.9789418557548557,0.358286598334626,1.8165882764317502
22,1669021536.0,1669021596.0,66,7679,99.28039217502274,0.22425798229549243,0.6592958595441736,0.4350378772486811,0.17721510970074197,0.15130239984263544,0.1401721083599588,0.11704197137252144,0.09391183438508408,0.08008592543394669,0.39095148832901666,0.34747378722481104,0.3245175610417905,0.2623444484627765,0.18182374601778778,0.13573738284732983,2.207915308334421,2.298763372625938,2.3174116824456705,2.243023869246695,1.9353400222965436,1.6950428194993412,90.97691109435648,0.024221903893736164,-0.002075235827501643,53.24784569394458,1.5138884840721398,24.546906068640983,1.4487750008862414,23.162339278444115,1.5790019672580384,4301.281437447527,0.8922680310376958,-0.14668103656569334,7.737443263662808,70.68162308198065,-60.83007627063968,61.50470177249373,1.4952950397035056e-15,-0.22413203270928794,-1.141293533502879,12.9067027324608,0.1771287754722809,-1.2603659703039523,0.0002348232910686504,0.9848484848484849,0.0,3.106060606060606,8.969696969696969,14.030303030303031,25.37878787878788,79.54545454545455,79.54545454545455,79.54545454545455,81.54545454545455,0.0,3.3636363636363638,8.833333333333334,13.318181818181818,25.40909090909091,79.54545454545455,79.54545454545455,79.54545454545455,81.54545454545455,0.0,1.0151515151515151,9.257575757575758,16.166666666666668,25.46969696969697,80.54545454545455,80.54545454545455,80.54545454545455,82.54545454545455,0.16411909912571762,0.3832677927884189,0.5473868919141365,0.4344800277210965,0.1345437223261053,0.26084512652772845,0.39538884885383374,0.5257879110710459,0.11587729598536636,0.17539168126655347,0.29126897725191986,0.6712348530107585,0.09721086964462743,0.1164833487886371,0.21369421843326453,0.8415803451794164,0.05345385724847967,0.054181120612404564,0.10763497786088423,0.9996031746031748,0.1771287754722809,-1.2603659703039523,0.41744409043367614,0.3762950233145233,0.2526829005257414,0.24909928644475526,0.5046561797805929,0.2899404734524255,1.2140445143935503,2.158675344812359,1.742218397647924,0.0849970868755944,0.5160555399020474,2.274007113911118,21.41410093410346,0.24220574501226935,0.015151515151515152,1.0151515151515151,0.021476538523087244,3.465126457645249e-07,0.01549079255304267,-0.011702881359575487,81.57439965875352,1.7527870427225034,18.78787878787879,32.29492204919224,-0.6617878906578983,21.414100934103462,0.9964818874300617,0.9828429817727116,0.39529085678723863,0.0,0.0,0.0,0.023842164868570066,41.03388277911943,0.04100852357394052,20.375515165098882,0.05817488227931096,14.36129453267597,-8954849839.001245,0.12923397602918185,14.702626101218573,13.294945284002083,1.4377279833246481,3.1619427354038385,-2.272380064066975,28.240902498863235,4.817725176201551,7.820129277139476,-2.2625199891174516e-05,0.5767491580581436,1240.0,13.294945284002083,0.0,0.09516665918981951,2.9789418557548557,0.3913698826941018,1.8175214774420294
23,1669021546.0,1669021606.0,72,7679,98.95050339190544,0.22348099370156566,0.6558195134644867,0.4323385197629211,0.17642783605924217,0.15087977788781606,0.13943906496929867,0.11647161873438025,0.09376223369311261,0.07982692923597111,0.38821005564863964,0.3455439382983792,0.322748532859228,0.26141598916822867,0.18064283555553806,0.1348799838814684,2.201943136135208,2.2923820197764075,2.3170560216163434,2.246385737917996,1.9260157405318696,1.6896763332247204,91.52525316230668,0.024482354473238703,-0.0021869478937010882,44.84229031625559,1.5138884840721398,37.05283864202828,1.5627235964615638,27.39874552152075,1.465053371682716,4169.325362409234,0.8914402713569511,-0.15403969601515632,7.258467401637361,70.43592417488593,-60.54150427683577,61.26180644920461,1.821002870133972e-15,-0.21707074511264055,-1.1408396400173393,12.9067027324608,0.1737221260499816,-1.2651632602414287,0.00017545641609756078,0.9861111111111112,0.0,2.9027777777777777,8.805555555555555,13.833333333333334,25.180555555555557,78.95833333333333,78.95833333333333,78.95833333333333,80.95833333333333,0.0,3.1805555555555554,8.722222222222221,13.194444444444445,25.22222222222222,78.95833333333333,78.95833333333333,78.95833333333333,80.95833333333333,0.0,1.0,9.055555555555555,15.98611111111111,25.291666666666668,79.95833333333333,79.95833333333333,79.95833333333333,81.95833333333333,0.16355344984266493,0.3851061529583401,0.548659602801005,0.42994278935572183,0.13399827480316162,0.261663297812144,0.3956615726153056,0.520323791208479,0.11555406782362196,0.17688661151462132,0.29244067933824325,0.6628683698018705,0.09644320276048449,0.11655405494901869,0.21299725770950317,0.8334130651435863,0.053221537007225886,0.05399930477142334,0.10722084177864923,0.9988921957671957,0.1737221260499816,-1.2651632602414287,0.41768175494619,0.38046621258766217,0.24942726515186445,0.2463826045373071,0.5039326266504407,0.28620887193341243,1.2111431512487207,2.13470042606902,1.7362074515284154,0.08267081882599636,0.5095528379166423,2.225514352159499,21.2040794072432,0.24103305670329142,0.013888888888888888,1.0138888888888888,0.021457501117771782,7.379982174710542e-05,0.015367551268102624,-0.01170863681381334,80.98698335791389,1.7384358655418601,15.13888888888889,32.213037139693185,-0.6504058428137174,21.2040794072432,0.9966552060057275,0.9828276209853892,0.40045924404480693,0.0,0.0,0.0,0.022888478273827263,20.985895412580735,0.03814746378971211,21.277278144292712,0.05436013590033975,11.962381619837458,-8875301204.46468,0.16154247003647731,14.908547929697837,5.880145909327775,1.4054194893173526,1.6943809370084866,-2.32468486345828,122.27860455749259,8.517643384928517,2.953582133859252,-2.3817951192953554e-05,0.5695456246733541,1254.0,5.880145909327775,0.0,0.1020002059203209,2.962663484958381,0.40228226343149454,1.8195337106207885
24,1669021556.0,1669021616.0,77,7679,98.88505988401566,0.22356233907782513,0.6562524204668791,0.432690081389054,0.17686728809190833,0.15130239984263544,0.1393895097400831,0.11652023895927098,0.09408574518950089,0.0801728808361551,0.38790804925172223,0.34564772377843445,0.32277845299762226,0.26269227007161017,0.183562854061956,0.13738953548928964,2.195010640538449,2.2870646618677988,2.3187722476481056,2.2570154483197955,1.950535877166312,1.7137626262626262,91.44008400721627,0.024221903893736164,0.005891603016094129,43.90123095564947,1.5138884840721398,38.287441809658254,1.4813317424791907,32.24421356275361,1.5790019672580384,4231.046484102395,0.8914062675307206,0.42080234443725595,9.032532917116047,71.42408327372831,-60.905112192579104,62.60514040102564,-2.724101854509357e-15,-0.23636696571062157,-1.1235993553121248,12.9067027324608,0.16069326795570124,-1.266188651201583,0.0001779039626104189,0.987012987012987,0.0,2.896103896103896,8.87012987012987,14.012987012987013,25.2987012987013,79.06493506493507,79.06493506493507,79.06493506493507,81.06493506493507,0.0,3.207792207792208,8.805194805194805,13.272727272727273,25.324675324675326,79.06493506493507,79.06493506493507,79.06493506493507,81.06493506493507,0.0,1.025974025974026,9.090909090909092,16.09090909090909,25.415584415584416,80.06493506493507,80.06493506493507,80.06493506493507,82.06493506493507,0.163842046415651,0.3855534776464685,0.5493955240621196,0.4296610972764636,0.13464761709238027,0.2642043906372863,0.39885200772966656,0.5178168509707481,0.11594655916288302,0.18036131425337357,0.2963078734162566,0.6529248151666548,0.0969338169345608,0.11823224402093269,0.21516606095549348,0.8264419434808642,0.053817488930442116,0.054233067995542054,0.10805055692598417,1.004529993815708,0.16069326795570124,-1.266188651201583,0.4261293548034784,0.3915432997189045,0.2524642900824488,0.2506904822588691,0.5131789547789354,0.28969416960424105,1.2093266094075419,2.122263588143634,1.7304700746916077,0.08463352103635519,0.5163444228975362,2.2073966853115725,22.034363195269783,0.24265202073092043,0.0,1.0,0.021692678836871954,0.00012240698356679266,0.015659632614946094,-0.011888235780556955,81.09422390896148,1.7598661010395336,14.7012987012987,33.4236883612502,-0.6475805944348872,22.034363195269783,0.9967751008981445,0.9828474144778998,0.4073407027847415,0.0,0.0,0.0,0.023842164868570066,23.280257270825636,0.03910115038445491,13.420823438055065,0.056267509089825356,12.253877772109938,-8854876972.297276,0.17769671704012505,7.4822296563409,22.29286086503387,1.4861907243355912,4.001863796993271,-2.072468950267627,19.750393296039952,4.002970908372852,9.220613361476842,-2.1942559513987114e-05,0.526688078073229,1206.0,22.29286086503387,0.0,0.10733701699618423,2.9952202265513304,0.40667824706046846,1.8174860532370762
25,1669021566.0,1669021626.0,71,7679,100.51951709398315,0.22460580390432608,0.6569480636845464,0.43234225978022034,0.17799770832061768,0.1524328200713448,0.14043297456658405,0.11747674838356349,0.09504225461379341,0.08060765784719716,0.38860369246938953,0.3463433669961017,0.32382191782412323,0.2653878875400709,0.1876497579657513,0.1400851529577504,2.1849133811500745,2.2748062077615185,2.3091284063205757,2.261757943143812,1.974644015404885,1.7382026789635485,91.32995945803056,0.024352129183487434,-0.002459048340978038,47.02334395795626,1.5138884840721398,45.559439776304735,1.4813317424791907,40.7751861357925,1.5627235964615638,4489.856479632321,0.8939460103870077,-0.17923199144272842,8.814639410233518,72.8867295758173,-62.79235026277046,63.09852403656591,1.6433440535355358e-15,-0.24411372309480156,-1.1320110866740198,12.9067027324608,0.1374904007062623,-1.2746062692648823,0.00018374465502953347,0.9859154929577465,0.0,2.8309859154929575,8.901408450704226,14.28169014084507,25.47887323943662,79.16901408450704,79.16901408450704,79.16901408450704,81.16901408450704,0.0,3.183098591549296,8.859154929577464,13.380281690140846,25.47887323943662,79.16901408450704,79.16901408450704,79.16901408450704,81.16901408450704,0.0,1.056338028169014,9.056338028169014,16.12676056338028,25.6056338028169,80.16901408450704,80.16901408450704,80.16901408450704,82.16901408450704,0.16540632113604478,0.3829809847012372,0.548387305837282,0.4365583199579921,0.13599824905395508,0.26591206940127093,0.401910318455226,0.5199554635370419,0.1170689152999663,0.18377228186164105,0.30084119716160734,0.6467812440916727,0.09780155772894202,0.12022380425896444,0.21802536198790645,0.8201048329084345,0.054196485331360726,0.05464718375407474,0.10884366908543547,1.0041582830315225,0.1374904007062623,-1.2746062692648823,0.4382403120956108,0.40590599864246346,0.2600326781627234,0.26112725832559847,0.5275043637617683,0.29814379365984045,1.2083531870873792,2.1142990996731768,1.7232385558373822,0.08993155076508043,0.5326600785232581,2.208387313674854,23.343614885938454,0.24414381794555035,0.0,1.0,0.02225521989080441,4.537351406866041e-05,0.016487728412175846,-0.012501584780556612,81.19960773582838,1.8082511032725652,14.422535211267606,35.35237375922446,-0.6642683645546217,23.343614885938457,0.9971062164553053,0.9829406735214368,0.4080843729828828,0.0,0.0,0.0,0.022888478273827263,37.241675186546125,0.04005483697919771,19.47928131372761,0.05817488227931096,15.504213896852699,-8747007433.749985,0.16154247003647731,8.92834583922848,5.977071391349661,1.4215737363210004,1.7338767688368328,-2.4809649165138077,117.05680845366297,8.364764504083627,3.049561433467357,-2.3785851212646345e-05,0.5789813653593161,1249.0,5.977071391349661,0.0,0.10310585501998178,2.930106743365432,0.38883189999666534,1.817444120249889
26,1669021576.0,1669021636.0,76,7679,101.85876994873969,0.22373624988224194,0.653035070585168,0.42929882070292597,0.17704119889632516,0.15165022145146909,0.13965037594670834,0.11660719436147939,0.09425965599391771,0.08008592543394669,0.38503852097884467,0.34269124010334845,0.3199958801269531,0.26199662685394287,0.18460631888845694,0.13817213410916535,2.1759502861165627,2.2621273185094024,2.2939607450531696,2.2487079949036466,1.9584916894699502,1.7251811594202895,91.89562232797391,0.024352129183487434,0.005006755669275793,67.231953926535,1.5138884840721398,32.94627281256819,1.5790019672580384,27.878704052609734,1.4813317424791907,4581.532323652626,0.8946662718129066,0.3697815418719809,9.309560356379322,73.85651833205361,-62.80077264576339,64.25800190887168,-3.094224389089432e-15,-0.24483817020652174,-1.1116844440699571,12.9067027324608,0.1441507708458285,-1.2839625688002025,0.00017430452562663864,0.9868421052631579,0.0,2.9473684210526314,8.973684210526315,14.302631578947368,25.407894736842106,78.77631578947368,78.77631578947368,78.77631578947368,80.77631578947368,0.0,3.210526315789474,8.921052631578947,13.5,25.42105263157895,78.77631578947368,78.77631578947368,78.77631578947368,80.77631578947368,0.0,1.0789473684210527,9.118421052631579,16.223684210526315,25.513157894736842,79.77631578947368,79.77631578947368,79.77631578947368,81.77631578947368,0.1648399829864502,0.3764162063598633,0.5412561893463135,0.442635622406094,0.13494563102722168,0.2605229616165161,0.3954685926437378,0.5267391184256695,0.11631429195404053,0.1807345151901245,0.29704880714416504,0.6536200480388024,0.09684085845947266,0.11926162242889404,0.2161024808883667,0.8179200388693013,0.05378878116607666,0.05463087558746338,0.10841965675354004,0.9961309523809526,0.1441507708458285,-1.2839625688002025,0.44153483112606606,0.40652379693403506,0.26627035925490716,0.2679512845256704,0.5338837318990107,0.3049074366076139,1.2136574454573426,2.1307798308473527,1.7283931434201214,0.09415788853005148,0.5482239219539938,2.229663160931545,23.779139693310682,0.24248162280425375,0.0,1.0,0.02279408826055123,-3.254328361000534e-05,0.016921563426739145,-0.012878617551525359,80.80810213439493,1.8424563247026668,14.276315789473685,36.21097190783083,-0.6875369412778861,23.779139693310682,0.9971591868029828,0.9830656613444868,0.40757093544067896,0.0,0.0,0.0,0.022888478273827263,37.1709494568651,0.04100852357394052,18.729879182128354,0.056267509089825356,9.334530557323298,-8346050666.286558,0.14538822303282958,14.243266166206547,10.3225638353309,1.4700364773319436,2.9679626920431863,-2.4526800324017373,32.55632495676557,5.172153394244629,7.309139670460027,-2.2782855909129297e-05,0.6016185550999924,1247.0,10.3225638353309,0.0,0.10939522653798384,2.799879776993635,0.3575123768335162,1.8166358177148703
27,1669021586.0,1669021646.0,77,7679,105.45081702457136,0.22494334046558667,0.6516905343660744,0.42674719390048776,0.1778901828232632,0.15260018584548787,0.14081539133543608,0.1177619247026341,0.09522458045713363,0.08034305162327264,0.38158648501160325,0.3397805716401787,0.3169851662010275,0.2591794588232553,0.1833954882878129,0.1375466162158597,2.1468282728155765,2.2296691549662686,2.25501875339836,2.2042434715821813,1.9264944732686664,1.7128027587705006,92.03799967862211,0.024482354473238703,-0.0026275289284182057,50.919228116280316,1.5301668548686145,23.86836627597305,1.5790019672580384,16.543115285436205,1.465053371682716,4953.4216359212905,0.8981588713482253,-0.20232964831897593,8.966595761075894,77.00377572656453,-66.04582005972077,66.26589331573734,6.07000956711324e-16,-0.2378063108574534,-1.0802903680291767,12.9067027324608,0.13639429008978127,-1.289561489735193,0.00018604117825790813,0.974025974025974,0.0,2.948051948051948,8.987012987012987,14.402597402597403,25.532467532467532,78.54545454545455,78.54545454545455,78.54545454545455,80.54545454545455,0.0,3.1948051948051948,8.935064935064934,13.597402597402597,25.571428571428573,78.54545454545455,78.54545454545455,78.54545454545455,80.54545454545455,0.0,1.077922077922078,9.142857142857142,16.31168831168831,25.61038961038961,79.54545454545455,79.54545454545455,79.54545454545455,81.54545454545455,0.1658160469748757,0.3722549475632705,0.5380709945381462,0.44993171946356714,0.13568656475513013,0.2579707046607872,0.39365726941591733,0.5342649424229223,0.11729719112445781,0.18004962995454862,0.29734682107900645,0.6616914007464428,0.0969338169345608,0.11979066551505745,0.21672448244961826,0.8159910210210192,0.053921383696717104,0.05485643659319196,0.10877782028990907,0.9954596990311276,0.13639429008978127,-1.289561489735193,0.45771338785089877,0.422162928402757,0.2768851072840397,0.27937769110560473,0.5537259301828955,0.3167264835961971,1.2143728735094976,2.127907970844559,1.725395423831306,0.10210855201123413,0.5718520388888428,2.2302380265754964,25.610283545018433,0.24258724475773025,0.0,1.0,0.023693149914919522,-6.945086347325966e-05,0.01774773614189029,-0.013677080282389585,80.57946575755115,1.910049005249789,14.311688311688311,39.12966778141295,-0.7092108217455174,25.610283545018433,0.9972561585538832,0.983175597814937,0.4100272624111912,0.0,0.0,0.0,0.02193479167908446,33.296547550689255,0.03910115038445491,24.589303884997097,0.05531382249508256,22.158291761180017,-8874980834.933533,0.14538822303282958,17.223773073941537,6.009379885356956,1.4538822303282959,1.803002575207116,-2.5252383085925807,108.27105668271159,8.746725984520051,3.6686332362423886,-2.372966966334134e-05,0.5136699166342118,1267.0,6.009379885356956,0.0,0.10681278216729921,2.7673230354006857,0.3733469304080475,1.8154004199112312
28,1669021596.0,1669021656.0,80,7679,110.29541766621084,0.22743793200421078,0.655561452270836,0.4281235202666252,0.1802987539640037,0.15449263459892684,0.14287988088464224,0.1193963122624223,0.09651488642538747,0.0814613167957593,0.3827047501840899,0.3413289388020833,0.31930771694388443,0.2620181319534138,0.18675028380527292,0.14047130974390173,2.1247977322661753,2.2125930768951365,2.2382858170621573,2.1978707970643456,1.9358397874526907,1.7246008471814922,91.52525316230668,0.024352129183487434,-0.0019168271931381564,63.50714059804361,1.5301668548686145,46.64591732036161,1.4976101132756652,21.390018216270814,1.5790019672580384,5464.665699179856,0.9021790852125373,-0.1530422377121446,9.780150336731609,79.84143706850782,-68.96849003352199,70.00056052475496,-2.0726861936484235e-16,-0.2592451406289687,-1.11052906350204,12.9067027324608,0.12272117872846469,-1.2836886813970185,0.0002186323678378092,0.9875,0.0,3.0125,9.1125,14.6625,25.9,78.95,78.95,78.95,80.95,0.0,3.2125,9.0375,13.875,25.9,78.95,78.95,78.95,80.95,0.0,1.075,9.2625,16.65,25.9625,79.95,79.95,79.95,81.95,0.1679978370666504,0.37689514756202697,0.5448929846286774,0.450147367736367,0.13749822974205017,0.2629966139793396,0.40049484372138977,0.5305401673796979,0.11869847178459167,0.18339763879776,0.3020961105823517,0.6564760816238392,0.09779874086380005,0.12109844088554382,0.21889718174934386,0.814181388167982,0.054399299621582034,0.055199289321899415,0.10959858894348144,0.9969990079365079,0.12272117872846469,-1.2836886813970185,0.4745842570167428,0.4402448243972522,0.2831593289941983,0.2868891933838472,0.5718169145778437,0.32416812056632344,1.2086305257310506,2.106590900219443,1.7179734056590075,0.10653630054146719,0.5838122584344745,2.2059289747528132,27.172233105323993,0.24635629053001304,0.0,1.0,0.024191990554054972,2.3279969925394773e-05,0.018136502567607463,-0.014027442146825678,80.98531965835312,1.9582511971158052,15.3625,41.42577178969327,-0.7007503210591017,27.172233105323993,0.9973581435489418,0.9831067019349746,0.4155492308344775,0.0,0.0,0.0,0.023842164868570066,33.77694212898874,0.04100852357394052,21.25007140577113,0.05722119568456816,7.348019463270476,-8792555607.126438,0.14538822303282958,19.89170740149118,22.63210005211047,1.4861907243355912,3.9521790329439597,-2.36890051633911,19.49097592932328,3.975688682386415,9.278625959308844,-2.1982940482654463e-05,0.5192195084271466,1204.0,22.63210005211047,0.0,0.11245065475341955,2.8324365185865843,0.3445585556388075,1.8133671919244878
29,1669021606.0,1669021666.0,69,7679,110.28747683245379,0.22735191160632717,0.6534109423237462,0.426059030717419,0.17995467237246934,0.15423457340527608,0.1425357992931079,0.1193102918645387,0.09599876403808594,0.08111723520422495,0.3778876079026089,0.3375440412952054,0.3159529214264244,0.2587493568338374,0.1852019166433683,0.1405573301417853,2.0992982473347133,2.1888953918222387,2.215314522337892,2.1673607104821526,1.9255704868608097,1.7287770174866945,91.82976891011845,0.024482354473238703,-0.0023815434944196457,82.28256544105179,1.5301668548686145,32.84141870447171,1.4976101132756652,17.787714651532337,3.0766120805337036,5542.863704495817,0.9057868817725495,-0.19190061847096393,8.997006120053207,80.57825478334497,-67.73311467737304,69.12526619070037,1.746978363217957e-15,-0.2436016392914394,-1.0167877365047526,12.9067027324608,0.12310978530948825,-1.2875202432394508,0.0002431097031441071,0.9855072463768116,0.0,3.0869565217391304,9.130434782608695,14.681159420289855,26.028985507246375,79.0,79.0,79.0,81.0,0.0,3.260869565217391,9.101449275362318,14.014492753623188,26.057971014492754,79.0,79.0,79.0,81.0,0.0,1.0869565217391304,9.318840579710145,16.753623188405797,26.07246376811594,80.0,80.0,80.0,82.0,0.1685775397480398,0.3708937755529431,0.5394713153009829,0.45992275857768916,0.13808517870695694,0.2590111580447874,0.3970963367517444,0.5431485490235319,0.11918687129366225,0.1812150582023289,0.30040192949599115,0.6695327081156801,0.09820163422736569,0.1208100388015526,0.21901167302891827,0.8219737645008469,0.05449205205060434,0.05530363580454951,0.10979568785515384,0.9971762134805614,0.12310978530948825,-1.2875202432394508,0.4772895879832925,0.44014842458949327,0.28843150565345727,0.2919488418682929,0.5766182062808343,0.329892051943718,1.2129346953464888,2.128412429737486,1.7222148775597612,0.11006493389856742,0.5957278097178329,2.2448213704616338,27.62851468637627,0.24621574031932406,0.0,1.0,0.024518135764103607,-6.500467320265069e-05,0.01860745837297493,-0.014221689734798967,81.03609481170075,1.9853356981465944,16.869565217391305,42.119301826226135,-0.7182744686679392,27.62851468637627,0.9972859547545911,0.9832067994954671,0.38828970277210806,0.0,0.0,0.0,0.022888478273827263,42.5871293810166,0.04005483697919771,28.386397116329103,0.05531382249508256,29.967256288296046,-11001663590.409176,0.14538822303282958,18.30426499530428,7.511724856696195,0.4523189161021365,2.2238140439177827,-2.2830536384992555,44.20234266828761,6.045806410121439,6.293916429096624,-2.3387657880493763e-05,0.48327699665532264,1249.0,7.511724856696195,0.0,0.0832501517028595,3.011498597347805,0.37923756894798977,1.814654316626163
30,1669021616.0,1669021676.0,65,7679,111.54528230304705,0.23337333945817845,0.6542711463025821,0.42089780684440364,0.1859761002243206,0.15991191966559298,0.14614865600421864,0.11922427146665511,0.09599876403808594,0.08111723520422495,0.3730704656211279,0.33298496020737517,0.3116519015322449,0.2535021125629384,0.18167508033014113,0.138320799796812,2.0582384518772647,2.1472868902816495,2.170295500011664,2.1236473897527026,1.8884060384060382,1.7015042902139677,91.70771977546917,0.024352129183487434,-0.0021066094444183825,70.42240483512298,1.5301668548686145,18.283929013940092,3.0766120805337036,15.210361331568857,1.4976101132756652,5668.709804816459,0.9082415323552308,-0.1708893567744247,7.953064895846241,81.12056899166036,-67.39695749341931,70.41392521817178,1.0659528995906178e-15,-0.2364710866836903,-1.0539178827355729,12.9067027324608,0.11070021604898203,-1.2776546715723551,0.00028069617213707763,0.9692307692307692,0.0,3.1538461538461537,9.153846153846153,14.584615384615384,26.015384615384615,78.15384615384616,78.15384615384616,78.15384615384616,80.15384615384616,0.0,3.292307692307692,9.138461538461538,13.923076923076923,26.06153846153846,78.15384615384616,78.15384615384616,78.15384615384616,80.15384615384616,0.0,1.0615384615384615,9.307692307692308,16.70769230769231,26.046153846153846,79.15384615384616,79.15384615384616,79.15384615384616,81.15384615384616,0.1686132137592022,0.3668875840994028,0.535500797858605,0.46524221480642,0.13784437913161057,0.25771975884070764,0.3955641379723182,0.5461312418046526,0.1190138523395245,0.18067459693321816,0.29968844927274263,0.6739632314123549,0.0975987434387207,0.12172150978675256,0.21932025322547324,0.8165596720681781,0.053537772252009466,0.055260826991154595,0.10879859924316407,0.9802442002442002,0.11070021604898203,-1.2776546715723551,0.485388497562373,0.44881348857145076,0.2905500323235139,0.2931457498379373,0.584647471839124,0.33246312462911115,1.2100547318458479,2.1199881227135924,1.7167646248545863,0.11178114958078182,0.5986279743081787,2.242335187918502,28.162011524764186,0.2460428718773136,0.0,1.0,0.02494811284024185,-2.561018460509266e-06,0.018958302848955225,-0.014366325014767548,80.19069607257529,2.0004821509995376,19.2,43.34098090788307,-0.7070174227076258,28.162011524764186,0.9970093632742506,0.983119568384398,0.3783025842020328,0.0,0.0,0.0,0.023842164868570066,45.78239958462631,0.04196221016868332,29.50510796017329,0.072480181200453,13.809665681337531,-11374802791.159817,0.14538822303282958,14.598257629697313,8.270974465867639,0.5007816571130796,2.42167301487421,-2.3677788934568404,37.780254425029206,5.598737014900334,6.81741629483461,-2.322684928937686e-05,0.428902138423058,1228.0,8.270974465867639,0.0,0.07565131024918265,3.011498597347805,0.3848486151740502,1.8140788140074844
31,1669021626.0,1669021686.0,65,7679,112.57053155774283,0.23302925786664408,0.6510883915808893,0.4180591337142452,0.18580405942855344,0.1595678380740586,0.1456325336169171,0.11879416947723717,0.09565468244655158,0.08094519440845777,0.3704898536846202,0.33040434827086745,0.30915730999362084,0.2508354802285471,0.17900844799574986,0.13703049382855814,2.046038208611103,2.1351979762402733,2.1612671905177097,2.109553687755775,1.8674144851564203,1.6890681003584227,92.1486222743897,0.024482354473238703,0.0014311964041611302,69.57463096443924,1.5301668548686145,37.0315602490374,1.5790019672580384,16.803107880957093,3.060333709737229,5782.275286418046,0.9094588445534368,0.11719018816170575,7.769373006231916,81.8826736994177,-68.05101497280883,71.1994510059815,1.4804901383203024e-15,-0.2245797176583388,-1.0619704825395615,12.9067027324608,0.11239016987766345,-1.2703659331490198,0.0003164185491672158,0.9692307692307692,0.0,3.169230769230769,9.169230769230769,14.676923076923076,25.96923076923077,77.84615384615384,77.84615384615384,77.84615384615384,79.84615384615384,0.0,3.276923076923077,9.123076923076923,13.923076923076923,25.96923076923077,77.84615384615384,77.84615384615384,77.84615384615384,79.84615384615384,0.0,1.0307692307692307,9.353846153846154,16.723076923076924,26.0,78.84615384615384,78.84615384615384,78.84615384615384,80.84615384615384,0.16812091240516075,0.3646722280062162,0.5327931404113769,0.4677049163772271,0.13759822845458985,0.256489005455604,0.3940872339101938,0.5494506106110288,0.11827540030846229,0.17895154219407303,0.2972269425025353,0.6774080561284658,0.09747566810021034,0.12061383174015926,0.2180894998403696,0.8240065087910331,0.053045470897967996,0.054645450298602766,0.10769092119657077,0.9823504273504273,0.11239016987766345,-1.2703659331490198,0.48869792376775417,0.4501895432885412,0.29255215857514555,0.29351950610812055,0.5882274901942475,0.3349080559397359,1.2096301040627058,2.1284284815330836,1.7187498475072591,0.11343893007196683,0.6018010759947676,2.263161944995881,28.39493969795589,0.2456269390089876,0.0,1.0,0.02521563222898698,3.8800384595970015e-06,0.01900079591269767,-0.014526511615698718,79.88356755446728,2.014132869594177,19.26153846153846,43.85473419300889,-0.7115655648815973,28.39493969795589,0.9968498463117774,0.9830319128128728,0.37670437451460503,0.0,0.0,0.0,0.024795851463312868,28.445673780096076,0.04100852357394052,17.019544149249597,0.05531382249508256,27.483316531511917,-11778954610.386967,0.14538822303282958,7.925535508541861,6.090151120375195,0.5169359041167274,1.7980202075857632,-2.3801649493669843,68.78048824731272,7.412017881852236,4.885401060654246,-2.3733719050203827e-05,0.4319761566307253,1290.0,6.090151120375195,0.0,0.07471613181980537,1.5790019672580384,0.39928027217420825,1.8129070753104732
32,1669021636.0,1669021696.0,56,7679,115.1925860313206,0.24210677304110684,0.6602991911081167,0.4181924180670099,0.19410739102206387,0.16676708368154672,0.15120684445559324,0.11991054409152858,0.09661414073063777,0.08166927819723611,0.36992930317973044,0.3304572839003343,0.30891909966102016,0.2502824919564383,0.17977790518121406,0.13784437913161057,2.008418552024124,2.1003876967679784,2.128068028056336,2.089328690055904,1.8601788321568544,1.6865412365412367,90.86131248742691,0.024091678603984895,0.005627473430632573,65.7675692756672,1.5301668548686145,56.2594415862906,1.5627235964615638,13.714060205772492,3.060333709737229,6336.348546310286,0.9172438882160825,0.48364610374461486,6.91452077227364,85.94373828793879,-68.5049168608366,71.03598153129019,6.218058580945271e-16,-0.03460162714556031,-0.22443363245901127,12.9067027324608,0.1002447719761672,-1.2626163984454268,0.00034803822880905027,0.9642857142857143,0.0,3.0535714285714284,9.107142857142858,14.5,26.089285714285715,77.92857142857143,77.92857142857143,77.92857142857143,79.92857142857143,0.0,3.2142857142857144,9.089285714285714,13.839285714285714,26.071428571428573,77.92857142857143,77.92857142857143,77.92857142857143,79.92857142857143,0.0,1.0,9.267857142857142,16.642857142857142,26.125,78.92857142857143,78.92857142857143,78.92857142857143,80.92857142857143,0.1691406794956752,0.36513815607343403,0.5342788355691093,0.4704731602695191,0.13871249982288905,0.25828238895961214,0.3969948887825012,0.5509089318840368,0.1192841785294669,0.18028339317866734,0.29956757170813425,0.6794573513815193,0.09842730419976371,0.12114129747663226,0.21956860167639597,0.8303237582511735,0.053285028253282817,0.054142160075051446,0.10742718832833427,0.9970521541950114,0.1002447719761672,-1.2626163984454268,0.4911305938543458,0.45397318869415976,0.29168653229249225,0.2922449307677328,0.5894623815029111,0.3341579926451539,1.2065647455305946,2.1231495888633694,1.714798135134457,0.11303773477189215,0.5976652806388859,2.268117311311465,28.591817419078545,0.24668807115956515,0.0,1.0,0.0251532878268336,2.5239367635885978e-05,0.019079066703234764,-0.014544019645536485,79.96578913385939,2.011273560615309,20.107142857142858,44.11752671198508,-0.7033991643677194,28.591817419078545,0.9967836066857364,0.9829471880002897,0.3329591083394295,0.0,0.0,0.0,0.022888478273827263,41.37870723396931,0.03814746378971211,52.721776479817514,0.05817488227931096,36.242272826257405,-14724371779.436256,0.14538822303282958,6.715488007830213,4.587806149035956,0.4038561750911933,1.2098315107826443,-2.167480976345045,120.68237468079107,8.51559356374371,2.5077177853328783,-2.4211765586009497e-05,0.6699080525790682,1284.0,4.587806149035956,0.0,0.05985459153418126,1.5627235964615638,0.41875623613663593,1.8118113860082616
33,1669021646.0,1669021706.0,47,7679,108.55633171701372,0.24052437583168784,0.6624090540540087,0.4218846782223209,0.19270081572480255,0.16527259742820655,0.14997609107048956,0.11876770166250375,0.0956471202137706,0.08105390150468428,0.37335783046680493,0.3333583454509358,0.3112047845190698,0.250985779605069,0.1788108846643469,0.13696526957082225,2.0448389122022483,2.1410996360646144,2.1663458782091514,2.1175469004169716,1.8712359069501925,1.6897064473987553,90.60519335155632,0.024221903893736164,0.006464351588316713,63.11840563393043,1.5627235964615638,53.544059678138254,1.5301668548686145,20.773051065707975,1.4813317424791907,5661.082491683784,0.9175158284717502,0.521345204141151,6.05858721494112,80.64926497553127,-61.933063978383814,64.22034844874842,-5.329764497953089e-16,0.0009749711244145265,0.1536443824060827,12.9067027324608,0.1189998022058786,-1.2656974769283218,0.0003253523986427831,0.9787234042553191,0.0,3.0851063829787235,9.063829787234043,14.170212765957446,25.872340425531913,78.0,78.0,78.0,80.0,0.0,3.276595744680851,9.042553191489361,13.680851063829786,25.80851063829787,78.0,78.0,78.0,80.0,0.0,1.0,9.212765957446809,16.51063829787234,25.893617021276597,79.0,79.0,79.0,81.0,0.16748720534304354,0.36714420927331803,0.5346314146163615,0.46397298146260835,0.1375301442247756,0.2571881781233118,0.3947183223480874,0.5490464197678343,0.11795592815318007,0.17906152441146525,0.29701745256464535,0.6767863326849533,0.09804129093251329,0.12033887619667864,0.21838016712919195,0.8325049148496219,0.053275909829646986,0.05361633097871821,0.1068922408083652,1.0050151975683892,0.1189998022058786,-1.2656974769283218,0.45775312365223714,0.42012808281412173,0.2731818916843657,0.2722234874704689,0.550233068783033,0.31282359235647866,1.2089181978700403,2.1351394574220945,1.7213896010821605,0.09964811701037468,0.5589597560579473,2.2713499886891584,25.022340755289502,0.24500376196350115,0.0,1.0,0.023556322848841967,6.649488857309488e-05,0.017711902019375562,-0.013249981314792766,80.03319531142195,1.8814654583196835,20.319148936170212,38.70447962647246,-0.6692929281738942,25.022340755289502,0.9966796437531692,0.9829914591619212,0.3243602819525696,0.0,0.0,0.0,0.025749538058055674,58.75119332582403,0.06485068844251059,29.215623378675772,0.08869285331108065,22.417963629222783,-14929629497.046427,0.14538822303282958,6.780101454451239,6.300156331422615,0.4361646690984887,2.0216327338092253,-1.920618362993503,49.19961406933604,6.4088301018185705,6.022463045418674,-2.3551979424629793e-05,0.6070901188831961,1231.0,6.300156331422615,0.0,0.05708113935448587,1.6278370796474622,0.4150143832410262,1.8146357213327686
34,1669021656.0,1669021716.0,45,7679,102.04542787912126,0.24087601965600317,0.6672441566383446,0.4263681369823414,0.19278872668088137,0.1658879741207584,0.14988818011441074,0.11876770166250375,0.0959108530820071,0.08140554532899962,0.37845666591937727,0.3386330028156658,0.316391530927721,0.25608461505764135,0.18206359003926373,0.13898722156063542,2.0726603915669672,2.1677489991964882,2.2053299333696774,2.161464595700213,1.9013711563162112,1.7081418581418581,89.96517266014855,0.023961453314233626,-0.003940852906637641,45.88646363147376,1.5627235964615638,38.67984214736014,1.4976101132756652,31.960457741128835,1.5301668548686145,5061.693195878542,0.9150001138585394,-0.3023946017126585,4.753076751955565,76.73328816798274,-58.587458984227126,58.81400324609335,6.514156608609331e-16,0.050200322150453044,0.4538043864231729,12.9067027324608,0.11398106314391049,-1.2735740931531512,0.0002509467816550728,0.9777777777777777,0.0,3.088888888888889,9.11111111111111,14.11111111111111,26.044444444444444,78.71111111111111,78.71111111111111,78.71111111111111,80.71111111111111,0.0,3.311111111111111,9.088888888888889,13.844444444444445,26.0,78.71111111111111,78.71111111111111,78.71111111111111,80.71111111111111,0.0,1.0222222222222221,9.266666666666667,16.42222222222222,26.044444444444444,79.71111111111111,79.71111111111111,79.71111111111111,81.71111111111111,0.16870893902248807,0.37048411899142797,0.539193058013916,0.4620761413226892,0.13848710589938693,0.2600855403476291,0.39857264624701605,0.5448070076405075,0.11893180211385092,0.18204210069444443,0.30097390280829533,0.6703020213499118,0.09937649832831488,0.1226650873819987,0.22204158571031357,0.8278959066007568,0.053154871198866104,0.053688197665744355,0.10684306886461047,1.0006084656084655,0.11398106314391049,-1.2735740931531512,0.4361066411058122,0.4029667089909529,0.2610536940080583,0.2608819406520798,0.5251919558659326,0.29878327270109906,1.2095076222383334,2.1258106317147485,1.7197410251208074,0.09184585613060169,0.5342105738468164,2.241955139670822,23.13821975982021,0.24706412264240488,0.0,1.0,0.022383807771455582,-7.919333161482973e-06,0.016923853611836813,-0.012842050322924105,80.74155373333068,1.801309916926485,19.42222222222222,35.5270566385624,-0.6382259738397311,23.138219759820206,0.996921324189864,0.983068786979777,0.3186858907724122,0.0,0.0,0.0,0.03337903081599809,49.087366077667724,0.05817488227931096,38.3676017207191,0.08964653990582346,21.24829436783189,-14925803328.20908,0.14538822303282958,7.674494332950274,5.7509119332985925,0.4038561750911933,1.7361809409750613,-1.8102466109714659,66.64851989928441,7.397298319566506,5.119762915368529,-2.3783978511734936e-05,0.4878403079966547,1217.0,5.7509119332985925,0.0,0.05537615281981919,1.5464452256650891,0.41258475185562,1.8155535130500675
35,1669021666.0,1669021726.0,55,7679,103.83516876567718,0.24476089370384646,0.6793620398875033,0.43460114618365686,0.19640196575207658,0.16907647486483113,0.15343622679121038,0.12107709284578816,0.09788638018490223,0.0832348834262805,0.388219720861885,0.346512392665563,0.32359133945422225,0.2639067146215546,0.18840206874890275,0.14345882715803854,2.0890211051532575,2.178227273657616,2.2114152659375934,2.1881783799662187,1.9306289216401578,1.726313698785609,88.34272484909104,0.023440552155228545,0.00018471173445535978,36.57985894142294,1.5464452256650891,34.48913327404929,1.4976101132756652,24.46195308624179,1.3999398884968175,5253.524078504522,0.91296616911898,0.014484327469574251,7.186887715706259,78.41584895666037,-61.09567034108123,60.930005569689804,-2.5168332351445143e-16,2.4305861289088984e-05,0.2499425344657107,12.9067027324608,0.10709014491933685,-1.2800147393624501,0.00022428336061840198,0.9818181818181818,0.0,3.0727272727272728,9.327272727272728,15.072727272727272,26.69090909090909,80.65454545454546,80.65454545454546,80.65454545454546,82.65454545454546,0.0,3.272727272727273,9.236363636363636,15.054545454545455,26.618181818181817,80.65454545454546,80.65454545454546,80.65454545454546,82.65454545454546,0.0,1.018181818181818,9.527272727272727,17.0,26.727272727272727,81.65454545454546,81.65454545454546,81.65454545454546,83.65454545454546,0.17323413328690962,0.3848677721890536,0.5581019054759633,0.4552370640868908,0.14167090329256923,0.2699601606889205,0.4116310639814897,0.533536729007807,0.12174388712102717,0.18952483263882725,0.31126871975985443,0.655231772956923,0.10123506025834517,0.12756199403242632,0.2287970542907715,0.8069949683958971,0.05425384694879705,0.05469020496715199,0.10894405191594904,1.0001082251082252,0.10709014491933685,-1.2800147393624501,0.45853922051260115,0.4276371752118434,0.2711850812779419,0.27343806698438694,0.5507789662401112,0.3102437209623818,1.2051093598528886,2.099585744225616,1.7138502089579972,0.09898743000679762,0.5553416965770035,2.1929817827261777,26.173963437615225,0.2542147699212377,0.0,1.0,0.02272044841468113,9.482350063168954e-05,0.017178781119783628,-0.01335068666478165,82.6864459234655,1.8759774281476815,17.436363636363637,39.00111657321586,-0.6368578392402466,26.173963437615225,0.9972677815778318,0.9832054677260323,0.3452487633590401,0.0,0.0,0.0,0.02098110508434166,25.533298705433797,0.03910115038445491,49.90061431364999,0.0715264946057102,26.562057887652394,-15217869194.558693,0.14538822303282958,14.650573580965915,19.80510682647212,0.8077123501823866,3.4484087298162964,-1.4399951931723902,21.88534507703638,4.2447459200045765,8.881425117505978,-2.2392376518336324e-05,0.3168211784545152,1222.0,19.80510682647212,0.0,0.07043117580629549,1.5301668548686145,0.45916099075475675,1.8109787012960203
36,1669021676.0,1669021736.0,58,7679,101.7755047521993,0.24161486679248595,0.6830473856979542,0.4414325189054682,0.19316605235753434,0.16521135608801682,0.15199804306030273,0.1234141414085131,0.09977399633171853,0.08485284012355161,0.39577018544915016,0.3537033113201013,0.3302429392096702,0.2705583143770025,0.19415480367253335,0.14786326483394321,2.1105411770131073,2.208035706895972,2.232171813109071,2.200830238462426,1.9509849700860933,1.7444103960957895,87.80211485267516,0.023310326865477276,-0.0029067213948273016,36.71921324545804,1.5464452256650891,34.5157460250459,1.3999398884968175,32.69703669444494,1.4976101132756652,5144.111211453072,0.9132211429272185,-0.225595468031311,7.8915943191877185,77.61165842477119,-61.54979622402547,60.75523893690591,1.214001913422648e-15,-0.008423621310838837,0.29567512670717777,12.9067027324608,0.11795657428044966,-1.3039291771503438,0.0001642822007147728,1.0,0.0,3.086206896551724,9.46551724137931,15.827586206896552,27.17241379310345,82.36206896551724,82.36206896551724,82.36206896551724,84.36206896551724,0.0,3.396551724137931,9.362068965517242,15.53448275862069,27.155172413793103,82.36206896551724,82.36206896551724,82.36206896551724,84.36206896551724,0.0,1.0172413793103448,9.741379310344827,17.379310344827587,27.20689655172414,83.36206896551724,83.36206896551724,83.36206896551724,85.36206896551724,0.17627359258717504,0.3896501557580356,0.5659237483452106,0.4572722380777425,0.14427400457447973,0.2714447810732085,0.4157187856476882,0.538287447059406,0.12372254503184352,0.19034237697206693,0.31406492200391045,0.6580009949398177,0.10303315623053189,0.12827421056813207,0.23130736679866395,0.8104965753112171,0.05586134976354139,0.05586134976354139,0.11172269952708277,1.0090311986863711,0.11795657428044966,-1.3039291771503438,0.4457560236909403,0.41432142540034783,0.26940276466461677,0.27353346603492074,0.5384449258547244,0.3074381645482107,1.2100113154179033,2.110855750556791,1.71882384134191,0.09701495509267893,0.5532780875807852,2.2037390730308393,25.438985280632473,0.2574158190546835,0.0,1.0,0.02201157778322505,-7.829640926076842e-05,0.016805138803568435,-0.013329471548426884,84.39236196297921,1.8558918919495084,15.39655172413793,37.09873049969283,-0.6433558103693057,25.438985280632473,0.9977770699079107,0.9835069384351776,0.3493272405027367,0.0,0.0,0.0,0.023842164868570066,56.735400679695424,0.05340644930559695,25.13405679796233,0.0715264946057102,27.138060954384404,-14040457348.73706,0.14538822303282958,10.414363211646293,7.463262115685252,0.5169359041167274,2.287673273307549,-1.5110479091705695,42.11211361432875,5.937574414414074,6.541088711116841,-2.3335756707358475e-05,0.2560279096590268,1144.0,7.463262115685252,0.0,0.07826510671843934,1.4976101132756652,0.4474797464499765,1.8077514377653272
37,1669021686.0,1669021746.0,57,7679,99.05331238353119,0.2428150556304238,0.6917183670130643,0.4489033113826405,0.19427022608843716,0.16636149449781937,0.15308893810619006,0.12436203523115678,0.10045325214212592,0.08572616902264682,0.40199482440948486,0.36072262850674713,0.3377229246226224,0.27636007829145953,0.19817926666953348,0.15127077969637784,2.142922046893411,2.2480725707315132,2.282246672564392,2.239868352644088,1.9747048406139316,1.7635447254765437,86.75819715287746,0.022919650996223468,-0.0030932101625102295,44.973719885527885,1.4976101132756652,36.65144058819403,1.3999398884968175,25.274200694579694,1.4324966300897668,5189.803135426535,0.9070110966074619,-0.2389257462937234,7.518657128180919,77.24200223751633,-60.482077781325515,59.82377483338995,-3.582786134735132e-15,0.05710596123707816,0.6619873920000798,12.9067027324608,0.10693426234003323,-1.2952035624732623,0.00019237410535105775,1.0,0.0,3.1052631578947367,9.578947368421053,16.05263157894737,27.43859649122807,83.24561403508773,83.24561403508773,83.24561403508773,85.24561403508773,0.0,3.473684210526316,9.473684210526315,15.701754385964913,27.403508771929825,83.24561403508773,83.24561403508773,83.24561403508773,85.24561403508773,0.0,1.0175438596491229,9.842105263157896,17.56140350877193,27.473684210526315,84.24561403508773,84.24561403508773,84.24561403508773,86.24561403508773,0.17810297012329102,0.39774926503499347,0.5758522351582845,0.45221744859389973,0.14568233489990234,0.2795753479003906,0.42525768280029297,0.5270859581134492,0.12505102157592773,0.19606765111287436,0.32111867268880206,0.645081263574164,0.104279359181722,0.13122638066609701,0.235505739847819,0.8011022933216186,0.05698172251383463,0.05627997716267904,0.11326169967651367,1.0224519632414368,0.10693426234003323,-1.2952035624732623,0.44051525460543406,0.4130534694959488,0.2610052234734322,0.26574769949914145,0.5296972089183963,0.2981127130044305,1.2046793992117444,2.0861728693620964,1.7107064888001087,0.0911602976296138,0.5349075536079253,2.1645500687964865,24.90765383834213,0.26140642171057865,0.0,1.0,0.02113754738789471,7.052007217438776e-05,0.01615326025550717,-0.012747663722731731,85.27404893673287,1.8045653013015492,15.719298245614034,35.89847887484035,-0.601001334212717,24.90765383834213,0.9977384910802573,0.9834590859439845,0.3262131270214874,0.0,0.0,0.0,0.02098110508434166,66.39976103395232,0.03910115038445491,59.51943145810546,0.05817488227931096,37.75261919407025,-15214036685.153988,0.22615945805106824,3.982287613443567,5.91245440333507,0.5492443981240229,1.9519874633175236,-1.467094204706264,59.440522464998935,7.007473187569903,5.479649581081655,-2.3608583165019165e-05,0.23227080161552593,1196.0,5.91245440333507,0.0,0.06979567499328006,2.7836014061971603,0.4420096500397139,1.8093983978232528
38,1669021696.0,1669021756.0,64,7679,95.15755350869738,0.23613489085230335,0.6933244069417318,0.4571895160894284,0.1884113673506112,0.16137723265023068,0.14933141072591147,0.12514781403815609,0.10105617018951767,0.08625176309169023,0.409925756783321,0.36817916782423,0.3455587694014626,0.28468598990604793,0.20579045394371295,0.15742326056820222,2.191886958618593,2.299105123567041,2.3376455139426207,2.2892398338645803,2.034801022732057,1.8222688550274757,86.55505961165106,0.022659200416720926,0.006437675274910273,53.218930142100724,1.3999398884968175,38.09506197889216,1.4324966300897668,29.595870314722134,1.465053371682716,4745.047032753966,0.8969701365695955,0.4747788868158146,10.003268330982614,73.75005208264903,-58.67497239154178,61.039233242879845,1.6581489549187388e-15,-0.21679615722643403,-0.5480935693637465,12.9067027324608,0.1034489298446824,-1.3001711336022277,0.00017370279051166988,1.0,0.0,3.125,9.609375,16.140625,27.640625,84.203125,84.203125,84.203125,86.203125,0.0,3.40625,9.46875,15.734375,27.5625,84.203125,84.203125,84.203125,86.203125,0.0,1.015625,9.90625,17.703125,27.6875,85.203125,85.203125,85.203125,87.203125,0.1789976954460144,0.40211982280015945,0.5811175182461739,0.44906987696421663,0.1467481106519699,0.282746359705925,0.4294944703578949,0.5240573257864017,0.12624837458133698,0.19962242990732193,0.3258708044886589,0.6383421042679407,0.1048736497759819,0.13337328284978867,0.23824693262577057,0.7917956080458499,0.056874267756938934,0.056874267756938934,0.11374853551387787,1.009579613095238,0.1034489298446824,-1.3001711336022277,0.4504992872527303,0.4251671288164199,0.2673021933218598,0.27297016426400555,0.542029365207621,0.30513254798482087,1.2052196809825901,2.0851545692543016,1.7115408824680949,0.09575631847077948,0.5487091786766256,2.1595323533148183,26.524442274003967,0.26387407175898414,0.0,1.0,0.021385640025374346,5.5523671601219086e-05,0.016440183193965566,-0.013060532090887802,86.23259025611239,1.848851316294426,15.84375,37.72374131099882,-0.6124113744104954,26.524442274003967,0.9978883994046804,0.983556410371615,0.37510420661298993,0.0,0.0,0.0,0.022888478273827263,35.98765810799677,0.04005483697919771,28.593162678908463,0.0686654348214818,14.456251302817208,-11904013896.430944,0.12923397602918185,9.428179027567811,6.752475247524751,1.2438770192808752,2.227361193761243,-1.6476141168755953,54.68382882709762,6.68560427838197,5.657243188967966,-2.3384774957540866e-05,0.4048029089155486,1209.0,6.752475247524751,0.0,0.09691630765324787,2.7673230354006857,0.45659776588055,1.8066833735349466
39,1669021706.0,1669021766.0,74,7679,102.43663478439872,0.2389854288649285,0.6958990864370062,0.45691365757207764,0.1908940940067686,0.16367605362815418,0.15153827886471802,0.12671101230314408,0.10234350993715484,0.08726324432197659,0.40854646419656687,0.36679987523747587,0.3446392410102932,0.2849618484233988,0.20845708627810425,0.16018184574171043,2.153654408227122,2.2553661841517916,2.293799802639346,2.260833816285135,2.034775569258328,1.8339488736040452,86.19648593158142,0.022659200416720926,-0.0023267684071572948,58.94734179191862,1.4324966300897668,46.49873887604426,1.3999398884968175,29.967909007841154,1.3673831469038684,5425.210953143074,0.8997003833095413,-0.18279703112770368,10.045623345218694,78.5626238371674,-65.1934602844878,66.40786018998831,7.698548719265573e-16,-0.22710628924410742,-0.7526552075110486,12.9067027324608,0.10042481431679759,-1.2980233730368447,0.00017826281324210825,1.0,0.0,3.1216216216216215,9.58108108108108,16.216216216216218,27.635135135135137,84.0945945945946,84.0945945945946,84.0945945945946,86.0945945945946,0.0,3.324324324324324,9.486486486486486,15.91891891891892,27.554054054054053,84.0945945945946,84.0945945945946,84.0945945945946,86.0945945945946,0.0,1.0135135135135136,9.891891891891891,17.756756756756758,27.68918918918919,85.0945945945946,85.0945945945946,85.0945945945946,87.0945945945946,0.1791328288413383,0.4041029053765374,0.5832357342178757,0.4474062570197348,0.14680892067986565,0.2837801301801527,0.43058905086001836,0.5224113443692641,0.12616053787437645,0.20032174522812302,0.3264822831024995,0.6351128623489154,0.10432298119003708,0.13383611472877296,0.23815909591881004,0.7841635255334947,0.05632359917099412,0.056864132752289645,0.11318773192328375,0.9993564993564995,0.10042481431679759,-1.2980233730368447,0.4723015203295436,0.4459393378684969,0.2784422268966865,0.2844083357267797,0.5671669307308214,0.3179299400029295,1.2029985812315682,2.0794598004511666,1.7097869160700916,0.1033092436901642,0.5709439518129554,2.153844981077697,28.748530187612698,0.26439883425158067,0.0,1.0,0.022375147962089652,9.609693011600689e-05,0.017129467608403587,-0.013698099306073545,86.1265266733984,1.9291005320546775,15.864864864864865,41.07018352418836,-0.633102749844868,28.748530187612705,0.9978893461071526,0.983528098640415,0.38220520068532354,0.0,0.0,0.0,0.023842164868570066,24.374650511371936,0.04100852357394052,19.995496331880105,0.05436013590033975,19.677760844067137,-11777655835.99286,0.12923397602918185,8.29682716530286,6.9463262115685245,1.2761855132881708,2.3375467758259654,-1.7392085691470982,49.48106492198336,6.388730927116261,5.980780912269029,-2.3295222342728535e-05,0.5013889277024336,1337.0,6.9463262115685245,0.0,0.10611213064349864,2.7673230354006857,0.43833999463168405,1.8044442742434188
40,1669021716.0,1669021776.0,74,7679,108.24291175669518,0.24120619685150857,0.7010142304176508,0.45980803356614225,0.19292774865793627,0.1652071753213572,0.15292826364206713,0.12790532999260482,0.10334750663402469,0.08799886703491211,0.4118086515470993,0.369669659193172,0.34687925493994426,0.2866939832997877,0.2102298514787541,0.16232349151788755,2.1476371911053405,2.2511781913649833,2.287104874589575,2.2517953499229146,2.0295590068845883,1.841247641247641,85.6520499348725,0.022398749837218387,-0.001546159245583912,66.07266250054457,1.4324966300897668,40.24073018703515,1.3999398884968175,28.11434575643074,1.465053371682716,5968.483462350299,0.9022636044049466,-0.12670379294720208,10.76362095393069,81.9474406074854,-69.41148656132766,71.65017362572274,-1.776588165984363e-15,-0.22544462985226452,-0.8826317032237627,12.9067027324608,0.11039386003106781,-1.3031627920427262,0.0001698821628110502,1.0,0.0,3.1621621621621623,9.567567567567568,16.445945945945947,27.72972972972973,84.71621621621621,84.71621621621621,84.71621621621621,86.71621621621621,0.0,3.310810810810811,9.5,16.054054054054053,27.62162162162162,84.71621621621621,84.71621621621621,84.71621621621621,86.71621621621621,0.0,1.0,9.878378378378379,17.89189189189189,27.81081081081081,85.71621621621621,85.71621621621621,85.71621621621621,87.71621621621621,0.17988957585515203,0.4055082926879058,0.5853978685430579,0.44773385086476575,0.1475656676936794,0.2834558100313754,0.4310214777250548,0.5258602430387509,0.12637675130689466,0.20032174522812302,0.3266984965350177,0.6362737367992635,0.1046473013388144,0.13394422144503207,0.23859152278384646,0.7853497911547447,0.05664791931977143,0.057080346184807854,0.11372826550457929,1.0006435006435006,0.11039386003106781,-1.3031627920427262,0.4867806478221127,0.4586539021493539,0.2889561104389201,0.2953544029581997,0.5858660400205312,0.32966596195207726,1.2061230706039128,2.0892369147480885,1.714437000358333,0.1101632735421495,0.5937266957830376,2.1605134967978055,30.64515696964266,0.26478573883458073,0.0,1.0,0.023023960784582912,9.72480892278571e-05,0.01766620720355022,-0.013948451263893937,86.75005491334477,1.9976346586171594,16.405405405405407,43.52402933393389,-0.663632446194067,30.64515696964266,0.9978664995608649,0.9836531660179398,0.38318827469200634,0.0,0.0,0.0,0.023842164868570066,21.92319156515107,0.04100852357394052,33.55364819236898,0.05817488227931096,6.457257184693911,-12367403470.586103,0.16154247003647731,7.224064070741917,16.461177696717037,1.3569567483064096,3.3631944652998937,-1.673544774835697,25.013046426715928,4.5453085215180025,8.325568484818001,-2.2461633857307134e-05,0.5552391830790755,1329.0,16.461177696717037,0.0,0.10515152422245118,2.7673230354006857,0.44667048130955167,1.8016532652008026
41,1669021726.0,1669021786.0,74,7679,108.05322895299342,0.2403689983279206,0.6989677451377692,0.4585987468098485,0.19218357219252474,0.16446299885594567,0.15227710923483206,0.1271611535271933,0.10260333016861317,0.08734771262767703,0.4102272765580998,0.3682743283205254,0.34501881377641547,0.2844614539035531,0.20781127796616666,0.16046305035435876,2.147926786915664,2.2530004001639354,2.284665151250219,2.2472866859922265,2.021264007310519,1.8339361542849912,85.83657030634927,0.022528975126969657,-0.0021441694205100487,51.000620671743526,1.4324966300897668,41.093704857082955,1.465053371682716,22.74083880546048,1.3511047761073938,5866.739758853516,0.9015969583960894,-0.17574446147956196,11.223493425884218,81.96388764734664,-70.36527908218741,71.81205836772814,1.3916607300210844e-15,-0.22433801086046862,-0.8928666768840232,12.9067027324608,0.1179838359080027,-1.3043946581513033,0.0001523707470254953,1.0,0.0,3.2027027027027026,9.513513513513514,16.283783783783782,27.64864864864865,84.43243243243244,84.43243243243244,84.43243243243244,86.43243243243244,0.0,3.3513513513513513,9.445945945945946,15.932432432432432,27.527027027027028,84.43243243243244,84.43243243243244,84.43243243243244,86.43243243243244,0.0,1.0,9.797297297297296,17.824324324324323,27.7027027027027,85.43243243243244,85.43243243243244,85.43243243243244,87.43243243243244,0.1792409355575974,0.40518397253912847,0.5844249080967259,0.44602075277503245,0.1472413475449021,0.28161799585497055,0.42885934339987264,0.5276541124833909,0.12605243115811735,0.19848393105171822,0.32453636220983556,0.6399769699027965,0.10421487447377797,0.1326469408499228,0.23686181532370076,0.7897936312796994,0.056215492454735005,0.05643170588725322,0.11264719834198823,1.0056306306306306,0.1179838359080027,-1.3043946581513033,0.4839367126229393,0.45549127751876894,0.2873024201422055,0.29348618508801166,0.5827480546368917,0.3276571397301845,1.2065623500223506,2.0891022271020394,1.7169468658070604,0.10875219819226785,0.5901708067629512,2.1519502881400467,30.182318519769037,0.26359904719480115,0.0,1.0,0.023000453277113496,0.00011608102130035635,0.017653193243554816,-0.013847385668883529,86.46605396096388,1.9884154096005957,16.08108108108108,43.037822128092174,-0.6610194976412624,30.182318519769037,0.9978332537663969,0.9836664967016109,0.3853725777337578,0.0,0.0,0.0,0.024795851463312868,31.999148277272113,0.05340644930559695,21.80832237339178,0.07343386779519581,16.75798468320858,-12142759468.986954,0.16154247003647731,12.06183224610068,7.12402292860865,1.324648254299114,2.433189027338462,-1.7677317616879842,45.81601049249226,6.156711826323846,6.218422160358423,-2.3217489725184706e-05,0.5059262302551661,1247.0,7.12402292860865,0.0,0.1062742148674602,2.7673230354006857,0.4456438671879645,1.8021271496338094
42,1669021736.0,1669021796.0,67,7679,115.46629107943009,0.24288059389868447,0.7043630245120026,0.4614824306133182,0.19432307953058287,0.1664164620776509,0.1537654621656551,0.12874252851619278,0.10399866104125977,0.08846397732579431,0.40734359275463017,0.3665999312733495,0.34408859319465107,0.28464749801990596,0.20920660883881326,0.16250953563424045,2.118189937419699,2.225629087266307,2.2652261868602137,2.2291094450465176,2.011822753170222,1.836987095591746,85.21697736469136,0.02200807396796458,-0.0019582124569758733,64.14376092177748,1.4162182592932921,34.025603118783145,1.465053371682716,28.54572620078726,1.3511047761073938,7190.1912009486805,0.9095445825606372,-0.17460394118835054,12.033604576846258,89.16496295708214,-74.28410315933176,75.33097671678702,-5.329764497953089e-16,-0.221411842617773,-0.5171336060140801,12.9067027324608,0.11927109426392772,-1.2980699755667469,0.00016070099542124123,1.0,0.0,3.1194029850746268,9.417910447761194,16.402985074626866,27.71641791044776,84.7910447761194,84.7910447761194,84.7910447761194,86.7910447761194,0.0,3.1791044776119404,9.388059701492537,16.47761194029851,27.52238805970149,84.7910447761194,84.7910447761194,84.7910447761194,86.7910447761194,0.0,1.0,9.716417910447761,17.955223880597014,27.791044776119403,85.7910447761194,85.7910447761194,85.7910447761194,87.7910447761194,0.17981858039969828,0.41026337467022794,0.5900819550699262,0.441791034449335,0.1476995909391944,0.28405604433657516,0.4317556352757696,0.5249619247156251,0.1264461332292699,0.20011682652715426,0.3265629597564242,0.637001517925547,0.1042374639368769,0.13313261430654952,0.23737007824342643,0.7877505602720473,0.055760476126599665,0.0559992790222168,0.11175975514881646,1.0065742714996448,0.11927109426392772,-1.2980699755667469,0.5057352753640499,0.47686161730920523,0.29749300071662227,0.30346441181009687,0.6076091032774864,0.3395099224703353,1.2040628767755717,2.084649083245519,1.7174945641019306,0.11686321455073757,0.6100850389578371,2.1417251925614544,33.01525457880448,0.26493253924801313,0.0,1.0,0.02377854066983819,0.00021265810707742376,0.01825554946798945,-0.014157475846565787,86.82716477987242,2.065291303666657,16.059701492537314,46.85562775494775,-0.6765073895272257,33.01525457880448,0.9977613748719735,0.9836074043055929,0.32066393979836805,0.0,0.0,0.0,0.02193479167908446,63.10473143978389,0.03910115038445491,58.27095525118088,0.05817488227931096,34.56933388445318,-16708832856.94564,0.19385096404377278,4.281635336808367,5.540906722251172,0.5330901511203752,1.8009958340097503,-1.5076610315010013,69.02921550751661,7.528759372548931,5.075602283955355,-2.3731300629191033e-05,0.31885393024605113,1210.0,5.540906722251172,0.0,0.0776556480614507,2.8161581477901096,0.456662746041348,1.8013058266299429
